ENLIGHTEN Version,1.6.8
Measurement ID,20190528-092739-926302-WP-00169
Serial Number,WP-00169
Label,Acetone
Integration Time,500
Timestamp,2019-05-28 09:27:39.926302
Note,
Temperature,-99
CCD C0,843.7628784179688
CCD C1,0.150859996676445
CCD C2,-7.925799764052499e-06
CCD C3,-8.2813995661013e-09
CCD Offset,0
CCD Gain,1.9
Laser Wavelength,830.0
Laser Enable,False
Laser Power,100.0
Laser Temperature,-99
Pixel Count,1024

Wavenumber,Processed
196.52,850.00
198.64,957.00
200.76,1030.00
202.87,1123.00
204.99,1174.00
207.10,1229.00
209.22,1187.00
211.33,1166.00
213.44,1177.00
215.55,1202.00
217.66,1184.00
219.77,1175.00
221.88,1147.00
223.99,1151.00
226.09,1115.00
228.20,1094.00
230.30,1064.00
232.40,1058.00
234.51,1044.00
236.61,1069.00
238.71,1035.00
240.80,1027.00
242.90,1018.00
245.00,1032.00
247.10,972.00
249.19,976.00
251.28,917.00
253.38,967.00
255.47,942.00
257.56,898.00
259.65,864.00
261.74,856.00
263.83,846.00
265.92,829.00
268.00,778.00
270.09,807.00
272.17,767.00
274.25,766.00
276.34,727.00
278.42,730.00
280.50,719.00
282.58,744.00
284.65,683.00
286.73,706.00
288.81,687.00
290.88,717.00
292.96,651.00
295.03,666.00
297.10,664.00
299.18,656.00
301.25,658.00
303.32,649.00
305.38,662.00
307.45,654.00
309.52,668.00
311.58,658.00
313.65,635.00
315.71,647.00
317.77,645.00
319.84,634.00
321.90,645.00
323.96,635.00
326.01,613.00
328.07,649.00
330.13,630.00
332.18,617.00
334.24,641.00
336.29,674.00
338.35,639.00
340.40,622.00
342.45,630.00
344.50,628.00
346.55,653.00
348.59,687.00
350.64,686.00
352.69,649.00
354.73,709.00
356.78,722.00
358.82,759.00
360.86,729.00
362.90,768.00
364.94,860.00
366.98,881.00
369.02,917.00
371.06,997.00
373.09,987.00
375.13,1172.00
377.16,1223.00
379.19,1355.00
381.23,1537.00
383.26,1743.00
385.29,1977.00
387.32,2150.00
389.34,2306.00
391.37,2335.00
393.40,2405.00
395.42,2231.00
397.45,2030.00
399.47,1800.00
401.49,1612.00
403.51,1393.00
405.53,1210.00
407.55,1026.00
409.57,987.00
411.59,885.00
413.61,826.00
415.62,756.00
417.64,675.00
419.65,654.00
421.66,626.00
423.67,593.00
425.68,590.00
427.69,590.00
429.70,586.00
431.71,554.00
433.71,552.00
435.72,505.00
437.72,514.00
439.73,504.00
441.73,495.00
443.73,489.00
445.73,514.00
447.73,521.00
449.73,527.00
451.73,520.00
453.73,521.00
455.72,548.00
457.72,588.00
459.71,567.00
461.70,588.00
463.69,620.00
465.69,654.00
467.68,708.00
469.66,721.00
471.65,770.00
473.64,831.00
475.62,926.00
477.61,1029.00
479.59,1111.00
481.58,1281.00
483.56,1481.00
485.54,1682.00
487.52,1870.00
489.50,2020.00
491.48,2150.00
493.45,2220.00
495.43,2190.00
497.40,2104.00
499.38,1993.00
501.35,1916.00
503.32,1843.00
505.29,1813.00
507.26,1784.00
509.23,1796.00
511.20,1908.00
513.17,1975.00
515.13,2121.00
517.10,2345.00
519.06,2762.00
521.03,3129.00
522.99,3685.00
524.95,4341.00
526.91,5138.00
528.87,5718.00
530.83,5939.00
532.79,5752.00
534.74,5326.00
536.70,4661.00
538.65,3900.00
540.61,3095.00
542.56,2570.00
544.51,2112.00
546.46,1798.00
548.41,1497.00
550.36,1335.00
552.30,1204.00
554.25,1094.00
556.20,962.00
558.14,879.00
560.08,820.00
562.03,750.00
563.97,729.00
565.91,668.00
567.85,605.00
569.79,639.00
571.73,561.00
573.66,492.00
575.60,485.00
577.53,490.00
579.47,455.00
581.40,449.00
583.33,417.00
585.26,391.00
587.19,348.00
589.12,356.00
591.05,333.00
592.97,299.00
594.90,316.00
596.83,308.00
598.75,337.00
600.67,293.00
602.59,298.00
604.51,270.00
606.43,259.00
608.35,268.00
610.27,261.00
612.19,194.00
614.10,245.00
616.02,257.00
617.93,251.00
619.85,209.00
621.76,183.00
623.67,215.00
625.58,226.00
627.49,208.00
629.40,188.00
631.30,206.00
633.21,208.00
635.12,158.00
637.02,183.00
638.92,164.00
640.83,234.00
642.73,210.00
644.63,183.00
646.53,151.00
648.42,198.00
650.32,198.00
652.22,166.00
654.11,169.00
656.01,194.00
657.90,178.00
659.79,170.00
661.68,162.00
663.58,156.00
665.46,200.00
667.35,164.00
669.24,176.00
671.13,186.00
673.01,198.00
674.90,188.00
676.78,249.00
678.66,231.00
680.54,196.00
682.43,184.00
684.31,249.00
686.18,223.00
688.06,248.00
689.94,287.00
691.81,259.00
693.69,283.00
695.56,224.00
697.43,268.00
699.31,225.00
701.18,263.00
703.05,265.00
704.92,286.00
706.78,270.00
708.65,272.00
710.52,304.00
712.38,310.00
714.25,285.00
716.11,316.00
717.97,327.00
719.83,343.00
721.69,352.00
723.55,362.00
725.41,410.00
727.27,443.00
729.12,485.00
730.98,457.00
732.83,521.00
734.68,515.00
736.54,568.00
738.39,592.00
740.24,683.00
742.09,717.00
743.93,754.00
745.78,795.00
747.63,888.00
749.47,977.00
751.32,1072.00
753.16,1197.00
755.00,1320.00
756.84,1472.00
758.68,1630.00
760.52,1853.00
762.36,2142.00
764.20,2532.00
766.04,2971.00
767.87,3535.00
769.71,4370.00
771.54,5481.00
773.37,6913.00
775.20,8875.00
777.03,11618.00
778.86,15211.00
780.69,19893.00
782.52,25603.00
784.35,31558.00
786.17,36375.00
788.00,38806.00
789.82,38534.00
791.64,34663.00
793.46,28853.00
795.28,22255.00
797.10,16601.00
798.92,12118.00
800.74,8992.00
802.56,6921.00
804.37,5477.00
806.19,4339.00
808.00,3664.00
809.82,3144.00
811.63,2697.00
813.44,2387.00
815.25,2104.00
817.06,1937.00
818.86,1735.00
820.67,1572.00
822.48,1488.00
824.28,1366.00
826.09,1324.00
827.89,1226.00
829.69,1139.00
831.49,1170.00
833.29,1107.00
835.09,1071.00
836.89,1042.00
838.69,962.00
840.48,957.00
842.28,847.00
844.07,881.00
845.87,836.00
847.66,805.00
849.45,854.00
851.24,787.00
853.03,854.00
854.82,805.00
856.61,820.00
858.39,806.00
860.18,871.00
861.96,828.00
863.75,849.00
865.53,856.00
867.31,921.00
869.09,911.00
870.87,896.00
872.65,922.00
874.43,901.00
876.20,938.00
877.98,925.00
879.75,890.00
881.53,972.00
883.30,967.00
885.07,983.00
886.84,1008.00
888.61,1083.00
890.38,1105.00
892.15,1181.00
893.91,1222.00
895.68,1301.00
897.44,1299.00
899.21,1341.00
900.97,1398.00
902.73,1427.00
904.49,1404.00
906.25,1402.00
908.01,1395.00
909.77,1309.00
911.53,1272.00
913.28,1248.00
915.04,1166.00
916.79,1056.00
918.55,1043.00
920.30,982.00
922.05,898.00
923.80,923.00
925.55,812.00
927.30,782.00
929.05,706.00
930.79,707.00
932.54,702.00
934.28,628.00
936.02,648.00
937.77,637.00
939.51,589.00
941.25,536.00
942.99,517.00
944.73,536.00
946.46,514.00
948.20,491.00
949.94,464.00
951.67,468.00
953.40,422.00
955.14,463.00
956.87,413.00
958.60,434.00
960.33,409.00
962.06,426.00
963.78,396.00
965.51,378.00
967.24,382.00
968.96,394.00
970.69,426.00
972.41,379.00
974.13,379.00
975.85,412.00
977.57,411.00
979.29,420.00
981.01,413.00
982.73,444.00
984.44,449.00
986.16,419.00
987.87,375.00
989.58,409.00
991.30,352.00
993.01,381.00
994.72,376.00
996.43,347.00
998.13,341.00
999.84,354.00
1001.55,369.00
1003.25,339.00
1004.96,333.00
1006.66,343.00
1008.36,354.00
1010.06,348.00
1011.76,362.00
1013.46,335.00
1015.16,337.00
1016.86,346.00
1018.56,372.00
1020.25,365.00
1021.95,396.00
1023.64,407.00
1025.33,393.00
1027.02,414.00
1028.71,417.00
1030.40,436.00
1032.09,490.00
1033.78,463.00
1035.47,500.00
1037.15,544.00
1038.84,567.00
1040.52,631.00
1042.20,636.00
1043.89,701.00
1045.57,759.00
1047.25,881.00
1048.93,905.00
1050.60,1035.00
1052.28,1200.00
1053.96,1389.00
1055.63,1587.00
1057.31,1859.00
1058.98,2216.00
1060.65,2589.00
1062.32,2932.00
1063.99,3303.00
1065.66,3595.00
1067.33,3839.00
1069.00,3839.00
1070.66,3618.00
1072.33,3334.00
1073.99,2937.00
1075.66,2470.00
1077.32,2097.00
1078.98,1722.00
1080.64,1480.00
1082.30,1305.00
1083.96,1141.00
1085.62,995.00
1087.27,909.00
1088.93,835.00
1090.58,795.00
1092.24,763.00
1093.89,716.00
1095.54,643.00
1097.19,653.00
1098.84,643.00
1100.49,647.00
1102.14,549.00
1103.79,510.00
1105.43,518.00
1107.08,501.00
1108.72,453.00
1110.36,397.00
1112.01,409.00
1113.65,417.00
1115.29,378.00
1116.93,369.00
1118.56,352.00
1120.20,365.00
1121.84,325.00
1123.47,335.00
1125.11,324.00
1126.74,314.00
1128.37,305.00
1130.00,297.00
1131.63,285.00
1133.26,278.00
1134.89,276.00
1136.52,306.00
1138.14,303.00
1139.77,262.00
1141.39,291.00
1143.02,278.00
1144.64,274.00
1146.26,244.00
1147.88,269.00
1149.50,274.00
1151.12,299.00
1152.74,280.00
1154.36,282.00
1155.97,253.00
1157.59,280.00
1159.20,304.00
1160.81,285.00
1162.42,308.00
1164.04,287.00
1165.65,299.00
1167.25,314.00
1168.86,309.00
1170.47,352.00
1172.08,337.00
1173.68,345.00
1175.28,371.00
1176.89,365.00
1178.49,398.00
1180.09,447.00
1181.69,432.00
1183.29,442.00
1184.89,504.00
1186.49,512.00
1188.08,551.00
1189.68,557.00
1191.27,601.00
1192.87,618.00
1194.46,668.00
1196.05,710.00
1197.64,759.00
1199.23,820.00
1200.82,891.00
1202.41,955.00
1203.99,1033.00
1205.58,1113.00
1207.16,1249.00
1208.75,1438.00
1210.33,1572.00
1211.91,1773.00
1213.49,2032.00
1215.07,2365.00
1216.65,2642.00
1218.23,3014.00
1219.81,3295.00
1221.38,3605.00
1222.96,3695.00
1224.53,3649.00
1226.11,3550.00
1227.68,3248.00
1229.25,2985.00
1230.82,2633.00
1232.39,2315.00
1233.96,1991.00
1235.52,1726.00
1237.09,1524.00
1238.66,1314.00
1240.22,1189.00
1241.78,1069.00
1243.35,996.00
1244.91,915.00
1246.47,842.00
1248.03,776.00
1249.59,761.00
1251.14,744.00
1252.70,706.00
1254.26,645.00
1255.81,647.00
1257.36,593.00
1258.92,633.00
1260.47,586.00
1262.02,563.00
1263.57,544.00
1265.12,531.00
1266.67,537.00
1268.21,504.00
1269.76,493.00
1271.31,516.00
1272.85,502.00
1274.39,500.00
1275.93,492.00
1277.48,495.00
1279.02,490.00
1280.56,506.00
1282.09,506.00
1283.63,478.00
1285.17,501.00
1286.70,504.00
1288.24,541.00
1289.77,485.00
1291.30,523.00
1292.84,523.00
1294.37,544.00
1295.90,546.00
1297.42,536.00
1298.95,573.00
1300.48,580.00
1302.00,603.00
1303.53,570.00
1305.05,582.00
1306.58,612.00
1308.10,613.00
1309.62,609.00
1311.14,641.00
1312.66,662.00
1314.18,684.00
1315.69,664.00
1317.21,682.00
1318.72,725.00
1320.24,745.00
1321.75,761.00
1323.26,755.00
1324.78,765.00
1326.29,797.00
1327.80,799.00
1329.30,847.00
1330.81,833.00
1332.32,848.00
1333.82,911.00
1335.33,934.00
1336.83,928.00
1338.33,998.00
1339.84,1029.00
1341.34,1088.00
1342.84,1170.00
1344.34,1177.00
1345.83,1242.00
1347.33,1364.00
1348.83,1467.00
1350.32,1524.00
1351.82,1695.00
1353.31,1725.00
1354.80,1921.00
1356.29,1988.00
1357.78,1994.00
1359.27,2001.00
1360.76,2001.00
1362.25,1956.00
1363.73,1866.00
1365.22,1832.00
1366.70,1773.00
1368.19,1800.00
1369.67,1781.00
1371.15,1746.00
1372.63,1710.00
1374.11,1738.00
1375.59,1751.00
1377.07,1737.00
1378.54,1769.00
1380.02,1762.00
1381.49,1870.00
1382.97,1893.00
1384.44,1928.00
1385.91,1959.00
1387.38,1998.00
1388.85,2017.00
1390.32,2087.00
1391.79,2143.00
1393.26,2194.00
1394.72,2348.00
1396.19,2407.00
1397.65,2490.00
1399.12,2614.00
1400.58,2701.00
1402.04,2855.00
1403.50,2987.00
1404.96,3167.00
1406.42,3300.00
1407.88,3548.00
1409.33,3748.00
1410.79,3922.00
1412.24,4196.00
1413.70,4461.00
1415.15,4761.00
1416.60,5058.00
1418.05,5288.00
1419.50,5581.00
1420.95,5846.00
1422.40,5971.00
1423.84,6178.00
1425.29,6297.00
1426.74,6430.00
1428.18,6445.00
1429.62,6550.00
1431.06,6563.00
1432.51,6606.00
1433.95,6475.00
1435.39,6375.00
1436.82,6314.00
1438.26,6228.00
1439.70,6069.00
1441.13,5897.00
1442.57,5614.00
1444.00,5456.00
1445.43,5184.00
1446.86,4926.00
1448.30,4680.00
1449.72,4402.00
1451.15,4196.00
1452.58,3951.00
1454.01,3698.00
1455.43,3557.00
1456.86,3337.00
1458.28,3220.00
1459.71,3082.00
1461.13,2875.00
1462.55,2749.00
1463.97,2649.00
1465.39,2546.00
1466.81,2416.00
1468.22,2291.00
1469.64,2208.00
1471.06,2140.00
1472.47,2024.00
1473.88,1939.00
1475.30,1832.00
1476.71,1780.00
1478.12,1724.00
1479.53,1693.00
1480.94,1605.00
1482.34,1583.00
1483.75,1474.00
1485.16,1457.00
1486.56,1440.00
1487.96,1368.00
1489.37,1352.00
1490.77,1305.00
1492.17,1287.00
1493.57,1253.00
1494.97,1239.00
1496.37,1134.00
1497.76,1172.00
1499.16,1147.00
1500.56,1126.00
1501.95,1113.00
1503.34,1081.00
1504.74,1061.00
1506.13,1035.00
1507.52,1033.00
1508.91,987.00
1510.30,986.00
1511.68,980.00
1513.07,955.00
1514.46,947.00
1515.84,955.00
1517.22,953.00
1518.61,928.00
1519.99,917.00
1521.37,934.00
1522.75,918.00
1524.13,919.00
1525.51,896.00
1526.88,856.00
1528.26,862.00
1529.63,864.00
1531.01,886.00
1532.38,846.00
1533.75,840.00
1535.13,837.00
1536.50,839.00
1537.87,838.00
1539.23,805.00
1540.60,812.00
1541.97,829.00
1543.33,801.00
1544.70,778.00
1546.06,757.00
1547.42,801.00
1548.79,780.00
1550.15,759.00
1551.51,736.00
1552.87,759.00
1554.22,770.00
1555.58,744.00
1556.94,713.00
1558.29,711.00
1559.65,728.00
1561.00,671.00
1562.35,723.00
1563.70,705.00
1565.05,659.00
1566.40,664.00
1567.75,673.00
1569.10,658.00
1570.45,645.00
1571.79,652.00
1573.14,655.00
1574.48,619.00
1575.82,599.00
1577.16,626.00
1578.50,595.00
1579.84,609.00
1581.18,569.00
1582.52,556.00
1583.86,555.00
1585.19,574.00
1586.53,529.00
1587.86,514.00
1589.20,544.00
1590.53,509.00
1591.86,502.00
1593.19,459.00
1594.52,442.00
1595.85,447.00
1597.18,445.00
1598.50,430.00
1599.83,417.00
1601.15,415.00
1602.48,411.00
1603.80,404.00
1605.12,373.00
1606.44,383.00
1607.76,373.00
1609.08,398.00
1610.40,360.00
1611.72,337.00
1613.03,343.00
1614.35,341.00
1615.66,356.00
1616.97,325.00
1618.29,316.00
1619.60,335.00
1620.91,323.00
1622.22,312.00
1623.53,293.00
1624.83,297.00
1626.14,289.00
1627.45,298.00
1628.75,291.00
1630.05,264.00
1631.36,301.00
1632.66,282.00
1633.96,275.00
1635.26,241.00
1636.56,251.00
1637.86,268.00
1639.15,271.00
1640.45,283.00
1641.74,264.00
1643.04,249.00
1644.33,266.00
1645.62,243.00
1646.92,261.00
1648.21,251.00
1649.50,257.00
1650.78,257.00
1652.07,261.00
1653.36,266.00
1654.64,283.00
1655.93,285.00
1657.21,291.00
1658.50,289.00
1659.78,274.00
1661.06,303.00
1662.34,293.00
1663.62,286.00
1664.90,303.00
1666.17,324.00
1667.45,344.00
1668.72,339.00
1670.00,384.00
1671.27,376.00
1672.54,409.00
1673.82,434.00
1675.09,453.00
1676.36,447.00
1677.62,483.00
1678.89,500.00
1680.16,539.00
1681.42,523.00
1682.69,544.00
1683.95,572.00
1685.22,572.00
1686.48,595.00
1687.74,650.00
1689.00,666.00
1690.26,757.00
1691.52,803.00
1692.77,858.00
1694.03,913.00
1695.28,1057.00
1696.54,1202.00
1697.79,1372.00
1699.04,1537.00
1700.30,1861.00
1701.55,2241.00
1702.80,2671.00
1704.04,3175.00
1705.29,3685.00
1706.54,4269.00
1707.78,4779.00
1709.03,5179.00
1710.27,5410.00
1711.52,5431.00
1712.76,5475.00
1714.00,5220.00
1715.24,4934.00
1716.48,4604.00
1717.72,4290.00
1718.95,3886.00
1720.19,3622.00
1721.43,3175.00
1722.66,2869.00
1723.89,2597.00
1725.13,2364.00
1726.36,2081.00
1727.59,1872.00
1728.82,1714.00
1730.05,1533.00
1731.28,1398.00
1732.50,1259.00
1733.73,1194.00
1734.95,1077.00
1736.18,1016.00
1737.40,936.00
1738.62,889.00
1739.84,873.00
1741.06,835.00
1742.28,831.00
1743.50,776.00
1744.72,774.00
1745.94,787.00
1747.15,774.00
1748.37,792.00
1749.58,750.00
1750.79,786.00
1752.00,772.00
1753.21,719.00
1754.42,677.00
1755.63,651.00
1756.84,605.00
1758.05,580.00
1759.25,515.00
1760.46,493.00
1761.66,452.00
1762.87,434.00
1764.07,413.00
1765.27,373.00
1766.47,362.00
1767.67,343.00
1768.87,310.00
1770.07,302.00
1771.26,285.00
1772.46,272.00
1773.65,274.00
1774.85,276.00
1776.04,230.00
1777.23,222.00
1778.42,249.00
1779.61,236.00
1780.80,217.00
1781.99,213.00
1783.18,217.00
1784.36,211.00
1785.55,201.00
1786.73,189.00
1787.92,177.00
1789.10,197.00
1790.28,199.00
1791.46,179.00
1792.64,174.00
1793.82,156.00
1795.00,190.00
1796.17,173.00
1797.35,173.00
1798.52,175.00
1799.70,188.00
1800.87,169.00
1802.04,164.00
1803.21,170.00
1804.38,148.00
1805.55,139.00
1806.72,156.00
1807.89,110.00
1809.05,124.00
1810.22,143.00
1811.38,130.00
1812.55,113.00
1813.71,108.00
1814.87,118.00
1816.03,114.00
1817.19,101.00
1818.35,120.00
1819.51,112.00
1820.67,108.00
1821.82,109.00
1822.98,106.00
1824.13,105.00
1825.28,95.00
1826.44,120.00
1827.59,99.00
1828.74,74.00
1829.89,94.00
1831.04,112.00
1832.18,97.00
1833.33,87.00
1834.48,78.00
1835.62,71.00
1836.76,105.00
1837.91,80.00
1839.05,74.00
1840.19,67.00
1841.33,87.00
1842.47,81.00
1843.61,80.00
1844.74,64.00
1845.88,84.00
1847.01,76.00
1848.15,63.00
1849.28,78.00
1850.41,77.00
1851.55,72.00
1852.68,57.00
1853.81,61.00
