ENLIGHTEN Version,1.6.8
Measurement ID,20190530-174110-093610-WP-00339
Serial Number,WP-00339
Label,Ammonium Nitrate
Integration Time,10000
Timestamp,2019-05-30 17:41:10.093610
Note,
Temperature,-99
CCD C0,1090.1485595703125
CCD C1,0.5324100255966187
CCD C2,-3.608499901019968e-05
CCD C3,-2.1022999874276138e-07
CCD Offset,0
CCD Gain,1.9
Laser Wavelength,1064.0
Laser Enable,False
Laser Power,100.0
Laser Temperature,-99
Pixel Count,512

Wavenumber,Processed
225.43,1024.00
229.91,925.00
234.38,833.00
238.85,734.00
243.31,711.00
247.77,610.00
252.22,615.00
256.67,530.00
261.11,512.00
265.55,463.00
269.98,475.00
274.41,416.00
278.83,442.00
283.25,401.00
287.66,362.00
292.07,325.00
296.47,349.00
300.87,296.00
305.26,298.00
309.65,272.00
314.03,277.00
318.41,234.00
322.78,240.00
327.15,233.00
331.51,259.00
335.87,221.00
340.22,232.00
344.57,213.00
348.91,216.00
353.25,195.00
357.58,233.00
361.91,227.00
366.23,178.00
370.55,193.00
374.86,202.00
379.17,168.00
383.47,183.00
387.76,178.00
392.06,184.00
396.34,173.00
400.62,158.00
404.90,178.00
409.17,156.00
413.44,168.00
417.70,159.00
421.95,153.00
426.21,169.00
430.45,151.00
434.69,180.00
438.93,143.00
443.16,178.00
447.39,141.00
451.61,126.00
455.82,146.00
460.03,146.00
464.24,155.00
468.44,136.00
472.63,151.00
476.82,149.00
481.01,119.00
485.19,146.00
489.36,92.00
493.53,161.00
497.70,104.00
501.86,170.00
506.01,151.00
510.16,95.00
514.30,133.00
518.44,81.00
522.58,128.00
526.71,112.00
530.83,121.00
534.95,109.00
539.06,136.00
543.17,120.00
547.28,114.00
551.37,109.00
555.47,113.00
559.56,115.00
563.64,128.00
567.72,145.00
571.79,106.00
575.86,104.00
579.92,125.00
583.98,94.00
588.03,110.00
592.08,142.00
596.12,99.00
600.16,99.00
604.19,98.00
608.21,109.00
612.24,81.00
616.25,117.00
620.26,109.00
624.27,127.00
628.27,134.00
632.27,123.00
636.26,123.00
640.24,130.00
644.22,128.00
648.20,112.00
652.17,117.00
656.14,122.00
660.10,108.00
664.05,110.00
668.00,116.00
671.95,125.00
675.89,138.00
679.82,152.00
683.75,135.00
687.67,122.00
691.59,172.00
695.51,205.00
699.42,161.00
703.32,215.00
707.22,302.00
711.11,1050.00
715.00,2552.00
718.88,3191.00
722.76,2197.00
726.63,853.00
730.50,332.00
734.36,207.00
738.22,178.00
742.07,144.00
745.92,164.00
749.76,143.00
753.60,140.00
757.43,157.00
761.26,139.00
765.08,163.00
768.90,123.00
772.71,135.00
776.51,121.00
780.32,87.00
784.11,89.00
787.90,105.00
791.69,109.00
795.47,114.00
799.24,113.00
803.01,111.00
806.78,99.00
810.54,92.00
814.29,113.00
818.04,119.00
821.79,104.00
825.53,107.00
829.26,107.00
832.99,94.00
836.71,90.00
840.43,120.00
844.15,99.00
847.85,60.00
851.56,128.00
855.26,117.00
858.95,112.00
862.64,98.00
866.32,92.00
870.00,109.00
873.67,118.00
877.34,117.00
881.00,95.00
884.66,143.00
888.31,132.00
891.96,107.00
895.60,115.00
899.23,129.00
902.86,147.00
906.49,125.00
910.11,122.00
913.73,112.00
917.34,113.00
920.94,143.00
924.54,136.00
928.14,135.00
931.73,138.00
935.32,130.00
938.90,118.00
942.47,131.00
946.04,130.00
949.60,115.00
953.16,98.00
956.72,126.00
960.27,112.00
963.81,141.00
967.35,162.00
970.88,168.00
974.41,176.00
977.94,178.00
981.45,189.00
984.97,191.00
988.47,161.00
991.98,210.00
995.48,233.00
998.97,223.00
1002.46,249.00
1005.94,263.00
1009.41,261.00
1012.89,314.00
1016.35,355.00
1019.82,407.00
1023.27,532.00
1026.72,657.00
1030.17,853.00
1033.61,1461.00
1037.05,3559.00
1040.48,10406.00
1043.90,17901.00
1047.32,19638.00
1050.74,11939.00
1054.15,5030.00
1057.56,1776.00
1060.96,938.00
1064.35,604.00
1067.74,551.00
1071.13,464.00
1074.51,388.00
1077.88,349.00
1081.25,324.00
1084.61,281.00
1087.97,289.00
1091.33,222.00
1094.68,246.00
1098.02,205.00
1101.36,208.00
1104.69,187.00
1108.02,174.00
1111.34,174.00
1114.66,187.00
1117.98,143.00
1121.28,155.00
1124.59,142.00
1127.88,186.00
1131.18,115.00
1134.46,129.00
1137.75,145.00
1141.02,145.00
1144.30,105.00
1147.56,121.00
1150.82,143.00
1154.08,133.00
1157.33,88.00
1160.58,117.00
1163.82,115.00
1167.06,142.00
1170.29,77.00
1173.51,116.00
1176.73,107.00
1179.95,117.00
1183.16,115.00
1186.37,99.00
1189.57,85.00
1192.76,104.00
1195.95,93.00
1199.14,129.00
1202.32,75.00
1205.49,122.00
1208.66,92.00
1211.83,133.00
1214.99,85.00
1218.14,121.00
1221.29,108.00
1224.43,112.00
1227.57,110.00
1230.71,66.00
1233.84,122.00
1236.96,100.00
1240.08,102.00
1243.19,91.00
1246.30,95.00
1249.41,81.00
1252.50,117.00
1255.60,107.00
1258.68,98.00
1261.77,122.00
1264.85,162.00
1267.92,117.00
1270.99,137.00
1274.05,190.00
1277.11,253.00
1280.16,250.00
1283.21,331.00
1286.25,390.00
1289.29,460.00
1292.32,433.00
1295.34,388.00
1298.37,362.00
1301.38,292.00
1304.40,226.00
1307.40,203.00
1310.40,144.00
1313.40,156.00
1316.39,134.00
1319.38,130.00
1322.36,138.00
1325.33,123.00
1328.31,117.00
1331.27,116.00
1334.23,130.00
1337.19,111.00
1340.14,118.00
1343.08,113.00
1346.03,118.00
1348.96,127.00
1351.89,130.00
1354.82,130.00
1357.74,131.00
1360.65,127.00
1363.56,141.00
1366.47,136.00
1369.37,117.00
1372.26,172.00
1375.15,127.00
1378.04,132.00
1380.91,157.00
1383.79,151.00
1386.66,199.00
1389.52,185.00
1392.38,209.00
1395.24,237.00
1398.09,258.00
1400.93,294.00
1403.77,308.00
1406.60,400.00
1409.43,379.00
1412.26,453.00
1415.07,458.00
1417.89,438.00
1420.70,456.00
1423.50,436.00
1426.30,393.00
1429.09,353.00
1431.88,351.00
1434.66,295.00
1437.44,297.00
1440.21,257.00
1442.98,272.00
1445.75,259.00
1448.50,255.00
1451.26,257.00
1454.00,303.00
1456.75,315.00
1459.48,300.00
1462.22,290.00
1464.94,307.00
1467.67,284.00
1470.38,257.00
1473.10,225.00
1475.80,200.00
1478.51,193.00
1481.20,177.00
1483.90,176.00
1486.58,177.00
1489.27,154.00
1491.94,160.00
1494.61,138.00
1497.28,171.00
1499.94,157.00
1502.60,137.00
1505.25,149.00
1507.90,114.00
1510.54,105.00
1513.18,139.00
1515.81,111.00
1518.43,98.00
1521.06,119.00
1523.67,122.00
1526.28,127.00
1528.89,106.00
1531.49,105.00
1534.09,125.00
1536.68,136.00
1539.27,104.00
1541.85,100.00
1544.42,130.00
1546.99,141.00
1549.56,87.00
1552.12,130.00
1554.68,127.00
1557.23,105.00
1559.77,113.00
1562.31,67.00
1564.85,77.00
1567.38,105.00
1569.91,60.00
1572.43,103.00
1574.94,84.00
1577.45,118.00
1579.96,100.00
1582.46,92.00
1584.95,101.00
1587.44,75.00
1589.93,115.00
1592.41,65.00
1594.89,91.00
1597.36,109.00
1599.82,91.00
1602.28,102.00
1604.74,83.00
1607.19,95.00
1609.63,113.00
1612.07,97.00
1614.51,94.00
1616.94,109.00
1619.36,108.00
1621.78,73.00
1624.20,94.00
1626.61,90.00
1629.01,66.00
1631.41,87.00
1633.81,95.00
1636.20,96.00
1638.58,106.00
1640.96,126.00
1643.34,114.00
1645.71,97.00
1648.07,101.00
1650.43,160.00
1652.78,158.00
1655.13,197.00
1657.48,224.00
1659.82,218.00
1662.15,173.00
1664.48,114.00
1666.81,152.00
1669.13,86.00
1671.44,107.00
1673.75,115.00
1676.05,111.00
1678.35,129.00
1680.65,103.00
1682.94,111.00
1685.22,119.00
1687.50,99.00
1689.78,86.00
1692.04,123.00
1694.31,108.00
1696.57,93.00
1698.82,93.00
1701.07,94.00
1703.32,112.00
1705.55,92.00
1707.79,99.00
1710.02,106.00
1712.24,108.00
1714.46,112.00
1716.68,82.00
1718.88,98.00
1721.09,98.00
1723.29,98.00
1725.48,92.00
1727.67,113.00
1729.85,90.00
1732.03,79.00
1734.21,96.00
1736.38,98.00
1738.54,86.00
1740.70,89.00
1742.85,100.00
1745.00,86.00
1747.14,85.00
1749.28,85.00
1751.42,88.00
1753.55,50.00
1755.67,98.00
1757.79,55.00
1759.90,84.00
1762.01,84.00
1764.11,88.00
1766.21,82.00
1768.31,93.00
1770.40,48.00
1772.48,78.00
1774.56,95.00
1776.63,68.00
1778.70,90.00
1780.76,74.00
1782.82,73.00
1784.87,57.00
1786.92,74.00
1788.97,95.00
1791.00,76.00
1793.04,87.00
1795.07,90.00
1797.09,64.00
1799.11,81.00
1801.12,87.00
1803.13,43.00
1805.13,78.00
1807.13,73.00
1809.12,95.00
1811.11,133.00
1813.10,79.00
1815.07,65.00
1817.05,82.00
1819.02,83.00
1820.98,90.00
1822.94,26.00
1824.89,74.00
1826.84,43.00
1828.78,44.00
1830.72,90.00
1832.65,65.00
1834.58,44.00
1836.50,79.00
1838.42,48.00
1840.33,84.00
1842.24,99.00
1844.14,41.00
1846.04,60.00
1847.93,67.00
1849.82,56.00
