ENLIGHTEN Version,1.6.8
Measurement ID,20190528-175543-530817-WP-00421
Serial Number,WP-00421
Label,Ammonium Nitrate
Integration Time,200
Timestamp,2019-05-28 17:55:43.530817
Note,
Temperature,-99
CCD C0,845.722412109375
CCD C1,0.1515599936246872
CCD C2,-8.504200195602607e-06
CCD C3,-7.913800281755812e-09
CCD Offset,0
CCD Gain,1.9
Laser Wavelength,830.0
Laser Enable,True
Laser Power,100.0
Laser Temperature,-99
Pixel Count,1024

Wavenumber,Processed
223.98,716.00
226.10,790.00
228.22,879.00
230.33,919.00
232.45,1027.00
234.56,993.00
236.68,1017.00
238.79,1043.00
240.90,1004.00
243.01,970.00
245.12,982.00
247.23,938.00
249.34,908.00
251.44,867.00
253.55,832.00
255.65,799.00
257.76,746.00
259.86,756.00
261.96,734.00
264.06,766.00
266.16,710.00
268.26,687.00
270.36,699.00
272.46,666.00
274.55,655.00
276.65,638.00
278.74,626.00
280.83,619.00
282.92,571.00
285.01,558.00
287.10,537.00
289.19,520.00
291.28,507.00
293.37,502.00
295.45,489.00
297.54,473.00
299.62,452.00
301.70,423.00
303.78,445.00
305.86,429.00
307.94,414.00
310.02,410.00
312.10,414.00
314.18,387.00
316.25,366.00
318.33,366.00
320.40,352.00
322.47,380.00
324.54,361.00
326.62,359.00
328.69,340.00
330.75,346.00
332.82,327.00
334.89,334.00
336.95,337.00
339.02,300.00
341.08,323.00
343.14,321.00
345.21,321.00
347.27,271.00
349.33,323.00
351.39,286.00
353.44,288.00
355.50,270.00
357.56,268.00
359.61,247.00
361.66,245.00
363.72,249.00
365.77,260.00
367.82,250.00
369.87,235.00
371.92,243.00
373.96,252.00
376.01,251.00
378.06,256.00
380.10,230.00
382.15,252.00
384.19,241.00
386.23,239.00
388.27,268.00
390.31,234.00
392.35,239.00
394.39,208.00
396.42,239.00
398.46,192.00
400.49,205.00
402.53,221.00
404.56,196.00
406.59,220.00
408.62,209.00
410.65,199.00
412.68,216.00
414.71,205.00
416.74,207.00
418.76,209.00
420.79,228.00
422.81,180.00
424.83,205.00
426.86,230.00
428.88,219.00
430.90,192.00
432.91,190.00
434.93,174.00
436.95,188.00
438.97,194.00
440.98,195.00
442.99,199.00
445.01,224.00
447.02,175.00
449.03,188.00
451.04,180.00
453.05,182.00
455.06,195.00
457.06,186.00
459.07,186.00
461.07,179.00
463.08,186.00
465.08,190.00
467.08,183.00
469.08,183.00
471.08,180.00
473.08,135.00
475.08,162.00
477.08,171.00
479.07,203.00
481.07,174.00
483.06,195.00
485.05,190.00
487.05,188.00
489.04,155.00
491.03,125.00
493.02,157.00
495.00,141.00
496.99,162.00
498.98,172.00
500.96,148.00
502.95,154.00
504.93,131.00
506.91,133.00
508.89,148.00
510.87,140.00
512.85,139.00
514.83,181.00
516.81,208.00
518.78,179.00
520.76,176.00
522.73,178.00
524.71,148.00
526.68,173.00
528.65,192.00
530.62,125.00
532.59,175.00
534.56,147.00
536.52,190.00
538.49,148.00
540.45,155.00
542.42,180.00
544.38,180.00
546.34,175.00
548.30,161.00
550.26,167.00
552.22,195.00
554.18,184.00
556.14,157.00
558.10,178.00
560.05,193.00
562.00,188.00
563.96,188.00
565.91,173.00
567.86,171.00
569.81,190.00
571.76,165.00
573.71,193.00
575.66,226.00
577.60,166.00
579.55,216.00
581.49,190.00
583.43,196.00
585.38,201.00
587.32,209.00
589.26,192.00
591.20,190.00
593.14,207.00
595.07,205.00
597.01,213.00
598.95,187.00
600.88,194.00
602.81,232.00
604.75,210.00
606.68,207.00
608.61,228.00
610.54,224.00
612.46,222.00
614.39,230.00
616.32,243.00
618.24,240.00
620.17,253.00
622.09,208.00
624.01,245.00
625.94,229.00
627.86,241.00
629.78,262.00
631.69,252.00
633.61,207.00
635.53,224.00
637.44,231.00
639.36,214.00
641.27,245.00
643.18,241.00
645.10,257.00
647.01,245.00
648.92,279.00
650.82,231.00
652.73,219.00
654.64,262.00
656.54,272.00
658.45,226.00
660.35,258.00
662.25,254.00
664.16,226.00
666.06,268.00
667.96,292.00
669.86,258.00
671.75,259.00
673.65,247.00
675.55,267.00
677.44,253.00
679.33,302.00
681.23,262.00
683.12,235.00
685.01,269.00
686.90,278.00
688.79,287.00
690.68,233.00
692.56,304.00
694.45,281.00
696.33,315.00
698.22,353.00
700.10,361.00
701.98,353.00
703.86,446.00
705.74,556.00
707.62,826.00
709.50,1471.00
711.38,2601.00
713.25,3918.00
715.13,4724.00
717.00,4987.00
718.87,4632.00
720.75,3615.00
722.62,2170.00
724.49,1173.00
726.36,684.00
728.22,467.00
730.09,389.00
731.96,319.00
733.82,291.00
735.69,298.00
737.55,245.00
739.41,268.00
741.27,226.00
743.13,283.00
744.99,226.00
746.85,237.00
748.71,226.00
750.56,193.00
752.42,235.00
754.27,268.00
756.12,235.00
757.98,173.00
759.83,217.00
761.68,184.00
763.53,169.00
765.38,192.00
767.22,207.00
769.07,222.00
770.91,180.00
772.76,226.00
774.60,229.00
776.44,205.00
778.29,232.00
780.13,192.00
781.97,209.00
783.80,203.00
785.64,209.00
787.48,163.00
789.31,228.00
791.15,258.00
792.98,195.00
794.81,235.00
796.64,222.00
798.48,194.00
800.30,205.00
802.13,194.00
803.96,196.00
805.79,184.00
807.61,213.00
809.44,232.00
811.26,167.00
813.08,190.00
814.91,156.00
816.73,267.00
818.55,203.00
820.36,175.00
822.18,165.00
824.00,182.00
825.81,165.00
827.63,180.00
829.44,161.00
831.26,204.00
833.07,206.00
834.88,203.00
836.69,182.00
838.50,222.00
840.30,165.00
842.11,183.00
843.92,166.00
845.72,199.00
847.53,158.00
849.33,173.00
851.13,156.00
852.93,197.00
854.73,163.00
856.53,133.00
858.33,146.00
860.13,146.00
861.92,196.00
863.72,205.00
865.51,177.00
867.30,145.00
869.10,211.00
870.89,165.00
872.68,192.00
874.47,186.00
876.26,196.00
878.04,194.00
879.83,165.00
881.61,176.00
883.40,159.00
885.18,159.00
886.96,198.00
888.75,186.00
890.53,177.00
892.30,146.00
894.08,159.00
895.86,213.00
897.64,178.00
899.41,159.00
901.19,196.00
902.96,156.00
904.73,196.00
906.50,169.00
908.27,194.00
910.04,177.00
911.81,181.00
913.58,199.00
915.35,216.00
917.11,199.00
918.88,207.00
920.64,220.00
922.40,211.00
924.17,202.00
925.93,187.00
927.69,173.00
929.44,152.00
931.20,196.00
932.96,173.00
934.71,141.00
936.47,181.00
938.22,211.00
939.98,163.00
941.73,186.00
943.48,211.00
945.23,145.00
946.98,184.00
948.73,194.00
950.47,190.00
952.22,194.00
953.96,215.00
955.71,220.00
957.45,182.00
959.19,205.00
960.93,193.00
962.67,214.00
964.41,224.00
966.15,188.00
967.89,173.00
969.63,213.00
971.36,188.00
973.09,213.00
974.83,212.00
976.56,207.00
978.29,239.00
980.02,237.00
981.75,266.00
983.48,228.00
985.21,245.00
986.93,252.00
988.66,243.00
990.38,237.00
992.11,279.00
993.83,249.00
995.55,296.00
997.27,248.00
998.99,302.00
1000.71,304.00
1002.43,273.00
1004.14,326.00
1005.86,315.00
1007.57,309.00
1009.29,351.00
1011.00,367.00
1012.71,359.00
1014.42,380.00
1016.13,395.00
1017.84,463.00
1019.55,535.00
1021.26,581.00
1022.96,676.00
1024.67,805.00
1026.37,954.00
1028.08,1139.00
1029.78,1329.00
1031.48,1722.00
1033.18,2283.00
1034.88,3423.00
1036.58,5466.00
1038.27,9247.00
1039.97,15457.00
1041.66,22119.00
1043.36,26512.00
1045.05,28057.00
1046.74,26642.00
1048.44,21997.00
1050.13,15216.00
1051.82,9206.00
1053.50,5360.00
1055.19,3381.00
1056.88,2265.00
1058.56,1630.00
1060.25,1288.00
1061.93,1013.00
1063.61,843.00
1065.30,714.00
1066.98,661.00
1068.66,604.00
1070.33,553.00
1072.01,478.00
1073.69,471.00
1075.36,463.00
1077.04,364.00
1078.71,370.00
1080.39,357.00
1082.06,340.00
1083.73,309.00
1085.40,338.00
1087.07,342.00
1088.74,279.00
1090.40,283.00
1092.07,275.00
1093.73,302.00
1095.40,287.00
1097.06,245.00
1098.72,234.00
1100.38,233.00
1102.04,239.00
1103.70,241.00
1105.36,241.00
1107.02,232.00
1108.67,245.00
1110.33,191.00
1111.98,233.00
1113.64,205.00
1115.29,211.00
1116.94,212.00
1118.59,211.00
1120.24,196.00
1121.89,194.00
1123.54,178.00
1125.18,175.00
1126.83,204.00
1128.47,209.00
1130.12,167.00
1131.76,183.00
1133.40,180.00
1135.04,190.00
1136.68,190.00
1138.32,181.00
1139.96,189.00
1141.60,174.00
1143.23,178.00
1144.87,195.00
1146.50,167.00
1148.13,186.00
1149.77,205.00
1151.40,142.00
1153.03,174.00
1154.66,142.00
1156.29,175.00
1157.91,187.00
1159.54,166.00
1161.16,161.00
1162.79,162.00
1164.41,167.00
1166.03,171.00
1167.66,144.00
1169.28,154.00
1170.89,158.00
1172.51,159.00
1174.13,191.00
1175.75,186.00
1177.36,171.00
1178.98,158.00
1180.59,211.00
1182.20,163.00
1183.82,167.00
1185.43,180.00
1187.04,184.00
1188.64,151.00
1190.25,200.00
1191.86,155.00
1193.47,156.00
1195.07,169.00
1196.67,152.00
1198.28,152.00
1199.88,150.00
1201.48,161.00
1203.08,209.00
1204.68,148.00
1206.28,190.00
1207.88,148.00
1209.47,165.00
1211.07,171.00
1212.66,143.00
1214.25,162.00
1215.85,161.00
1217.44,151.00
1219.03,171.00
1220.62,156.00
1222.21,144.00
1223.79,146.00
1225.38,140.00
1226.97,158.00
1228.55,145.00
1230.13,186.00
1231.72,141.00
1233.30,153.00
1234.88,157.00
1236.46,152.00
1238.04,159.00
1239.62,171.00
1241.19,142.00
1242.77,135.00
1244.34,166.00
1245.92,158.00
1247.49,138.00
1249.06,160.00
1250.63,169.00
1252.20,155.00
1253.77,178.00
1255.34,177.00
1256.91,135.00
1258.48,162.00
1260.04,200.00
1261.61,171.00
1263.17,200.00
1264.73,207.00
1266.29,173.00
1267.85,222.00
1269.41,247.00
1270.97,256.00
1272.53,270.00
1274.09,317.00
1275.64,347.00
1277.20,372.00
1278.75,430.00
1280.30,486.00
1281.86,524.00
1283.41,567.00
1284.96,645.00
1286.51,727.00
1288.05,762.00
1289.60,786.00
1291.15,789.00
1292.69,747.00
1294.24,708.00
1295.78,655.00
1297.32,592.00
1298.86,528.00
1300.40,446.00
1301.94,435.00
1303.48,382.00
1305.02,363.00
1306.56,319.00
1308.09,291.00
1309.63,271.00
1311.16,266.00
1312.69,247.00
1314.22,245.00
1315.75,211.00
1317.28,209.00
1318.81,193.00
1320.34,190.00
1321.87,216.00
1323.39,220.00
1324.92,186.00
1326.44,181.00
1327.97,178.00
1329.49,173.00
1331.01,199.00
1332.53,188.00
1334.05,186.00
1335.57,171.00
1337.08,161.00
1338.60,176.00
1340.12,171.00
1341.63,165.00
1343.14,177.00
1344.66,194.00
1346.17,175.00
1347.68,209.00
1349.19,186.00
1350.70,173.00
1352.20,183.00
1353.71,171.00
1355.22,200.00
1356.72,181.00
1358.23,176.00
1359.73,186.00
1361.23,194.00
1362.73,186.00
1364.23,189.00
1365.73,213.00
1367.23,194.00
1368.73,215.00
1370.22,188.00
1371.72,188.00
1373.21,196.00
1374.71,195.00
1376.20,195.00
1377.69,212.00
1379.18,209.00
1380.67,247.00
1382.16,232.00
1383.65,262.00
1385.13,250.00
1386.62,277.00
1388.10,290.00
1389.59,300.00
1391.07,321.00
1392.55,329.00
1394.03,362.00
1395.51,362.00
1396.99,386.00
1398.47,429.00
1399.95,475.00
1401.42,515.00
1402.90,527.00
1404.37,564.00
1405.85,595.00
1407.32,653.00
1408.79,672.00
1410.26,744.00
1411.73,797.00
1413.20,816.00
1414.67,855.00
1416.13,862.00
1417.60,894.00
1419.06,875.00
1420.53,877.00
1421.99,860.00
1423.45,828.00
1424.91,799.00
1426.37,781.00
1427.83,725.00
1429.29,744.00
1430.75,669.00
1432.20,617.00
1433.66,608.00
1435.11,567.00
1436.57,545.00
1438.02,525.00
1439.47,492.00
1440.92,482.00
1442.37,477.00
1443.82,451.00
1445.26,425.00
1446.71,458.00
1448.16,460.00
1449.60,456.00
1451.05,465.00
1452.49,480.00
1453.93,497.00
1455.37,522.00
1456.81,532.00
1458.25,553.00
1459.69,581.00
1461.13,548.00
1462.56,577.00
1464.00,556.00
1465.43,564.00
1466.86,541.00
1468.30,514.00
1469.73,470.00
1471.16,444.00
1472.59,435.00
1474.02,408.00
1475.44,387.00
1476.87,375.00
1478.30,346.00
1479.72,334.00
1481.14,321.00
1482.57,287.00
1483.99,277.00
1485.41,300.00
1486.83,271.00
1488.25,267.00
1489.67,250.00
1491.08,260.00
1492.50,257.00
1493.92,237.00
1495.33,246.00
1496.74,260.00
1498.16,241.00
1499.57,201.00
1500.98,207.00
1502.39,227.00
1503.80,234.00
1505.20,214.00
1506.61,207.00
1508.02,205.00
1509.42,207.00
1510.82,211.00
1512.23,203.00
1513.63,197.00
1515.03,189.00
1516.43,189.00
1517.83,179.00
1519.23,195.00
1520.63,186.00
1522.02,163.00
1523.42,178.00
1524.81,190.00
1526.20,182.00
1527.60,173.00
1528.99,181.00
1530.38,173.00
1531.77,159.00
1533.16,159.00
1534.55,159.00
1535.93,180.00
1537.32,164.00
1538.70,171.00
1540.09,161.00
1541.47,155.00
1542.85,153.00
1544.23,158.00
1545.61,159.00
1546.99,152.00
1548.37,154.00
1549.75,134.00
1551.12,148.00
1552.50,143.00
1553.87,148.00
1555.25,154.00
1556.62,141.00
1557.99,147.00
1559.36,156.00
1560.73,143.00
1562.10,158.00
1563.47,142.00
1564.84,142.00
1566.20,138.00
1567.57,144.00
1568.93,144.00
1570.29,150.00
1571.66,163.00
1573.02,135.00
1574.38,150.00
1575.74,133.00
1577.10,145.00
1578.45,140.00
1579.81,145.00
1581.16,146.00
1582.52,152.00
1583.87,146.00
1585.23,144.00
1586.58,129.00
1587.93,146.00
1589.28,143.00
1590.63,158.00
1591.98,148.00
1593.32,152.00
1594.67,148.00
1596.01,149.00
1597.36,125.00
1598.70,140.00
1600.04,135.00
1601.39,123.00
1602.73,132.00
1604.07,143.00
1605.40,156.00
1606.74,117.00
1608.08,152.00
1609.41,131.00
1610.75,146.00
1612.08,148.00
1613.42,133.00
1614.75,134.00
1616.08,136.00
1617.41,134.00
1618.74,127.00
1620.07,131.00
1621.39,133.00
1622.72,121.00
1624.04,164.00
1625.37,137.00
1626.69,150.00
1628.02,131.00
1629.34,158.00
1630.66,131.00
1631.98,167.00
1633.30,129.00
1634.61,156.00
1635.93,138.00
1637.25,144.00
1638.56,159.00
1639.88,156.00
1641.19,169.00
1642.50,147.00
1643.81,157.00
1645.12,175.00
1646.43,174.00
1647.74,182.00
1649.05,221.00
1650.35,234.00
1651.66,265.00
1652.96,299.00
1654.27,338.00
1655.57,364.00
1656.87,380.00
1658.17,384.00
1659.47,368.00
1660.77,315.00
1662.07,292.00
1663.37,256.00
1664.66,236.00
1665.96,218.00
1667.25,201.00
1668.55,201.00
1669.84,188.00
1671.13,188.00
1672.42,186.00
1673.71,173.00
1675.00,182.00
1676.29,186.00
1677.58,184.00
1678.86,184.00
1680.15,176.00
1681.43,194.00
1682.71,178.00
1684.00,186.00
1685.28,186.00
1686.56,169.00
1687.84,173.00
1689.11,182.00
1690.39,169.00
1691.67,163.00
1692.94,171.00
1694.22,175.00
1695.49,168.00
1696.76,156.00
1698.04,163.00
1699.31,152.00
1700.58,161.00
1701.85,169.00
1703.11,129.00
1704.38,142.00
1705.65,157.00
1706.91,150.00
1708.18,148.00
1709.44,160.00
1710.70,156.00
1711.96,159.00
1713.22,140.00
1714.48,154.00
1715.74,139.00
1717.00,159.00
1718.26,150.00
1719.51,135.00
1720.77,129.00
1722.02,148.00
1723.28,131.00
1724.53,131.00
1725.78,133.00
1727.03,133.00
1728.28,132.00
1729.53,127.00
1730.77,122.00
1732.02,123.00
1733.27,123.00
1734.51,131.00
1735.75,112.00
1737.00,121.00
1738.24,133.00
1739.48,131.00
1740.72,124.00
1741.96,122.00
1743.20,116.00
1744.43,116.00
1745.67,96.00
1746.91,124.00
1748.14,115.00
1749.37,131.00
1750.61,118.00
1751.84,102.00
1753.07,127.00
1754.30,116.00
1755.53,116.00
1756.75,120.00
1757.98,110.00
1759.21,129.00
1760.43,110.00
1761.66,105.00
1762.88,119.00
1764.10,137.00
1765.32,117.00
1766.54,122.00
1767.76,112.00
1768.98,102.00
1770.20,116.00
1771.41,124.00
1772.63,105.00
1773.84,123.00
1775.06,118.00
1776.27,124.00
1777.48,114.00
1778.69,122.00
1779.90,119.00
1781.11,93.00
1782.32,120.00
1783.53,121.00
1784.73,94.00
1785.94,101.00
1787.14,129.00
1788.35,101.00
1789.55,129.00
1790.75,120.00
1791.95,119.00
1793.15,131.00
1794.35,141.00
1795.55,121.00
1796.75,122.00
1797.94,112.00
1799.14,125.00
1800.33,123.00
1801.52,110.00
1802.72,127.00
1803.91,102.00
1805.10,108.00
1806.29,105.00
1807.48,127.00
1808.66,103.00
1809.85,130.00
1811.04,108.00
1812.22,87.00
1813.41,107.00
1814.59,97.00
1815.77,81.00
1816.95,80.00
1818.13,99.00
1819.31,89.00
1820.49,86.00
1821.67,86.00
1822.84,85.00
1824.02,78.00
1825.19,108.00
1826.37,89.00
1827.54,91.00
1828.71,66.00
1829.88,96.00
1831.05,64.00
1832.22,87.00
1833.39,59.00
1834.56,72.00
1835.72,79.00
1836.89,76.00
1838.05,78.00
1839.22,80.00
1840.38,72.00
1841.54,74.00
1842.70,63.00
1843.86,75.00
1845.02,64.00
1846.18,62.00
1847.33,74.00
1848.49,79.00
1849.64,76.00
1850.80,61.00
1851.95,74.00
1853.10,76.00
1854.25,70.00
1855.41,68.00
1856.55,64.00
1857.70,72.00
1858.85,78.00
1860.00,68.00
1861.14,74.00
1862.29,63.00
1863.43,82.00
1864.57,53.00
1865.72,55.00
1866.86,61.00
1868.00,84.00
1869.14,55.00
1870.28,76.00
1871.41,65.00
1872.55,70.00
1873.68,47.00
1874.82,66.00
1875.95,68.00
1877.09,48.00
1878.22,70.00
1879.35,72.00
