ENLIGHTEN Version,1.6.8
Measurement ID,20190528-092541-305087-WP-00169
Serial Number,WP-00169
Label,Ammonium Chloride
Integration Time,2000
Timestamp,2019-05-28 09:25:41.305087
Note,
Temperature,-99
CCD C0,843.7628784179688
CCD C1,0.150859996676445
CCD C2,-7.925799764052499e-06
CCD C3,-8.2813995661013e-09
CCD Offset,0
CCD Gain,1.9
Laser Wavelength,830.0
Laser Enable,False
Laser Power,100.0
Laser Temperature,-99
Pixel Count,1024

Wavenumber,Processed
196.52,4981.00
198.64,5578.00
200.76,6005.00
202.87,6357.00
204.99,6449.00
207.10,6491.00
209.22,6439.00
211.33,6287.00
213.44,6161.00
215.55,5947.00
217.66,5660.00
219.77,5504.00
221.88,5391.00
223.99,5108.00
226.09,4982.00
228.20,4815.00
230.30,4695.00
232.40,4568.00
234.51,4510.00
236.61,4307.00
238.71,4173.00
240.80,4057.00
242.90,3944.00
245.00,3880.00
247.10,3887.00
249.19,3786.00
251.28,3605.00
253.38,3529.00
255.47,3493.00
257.56,3386.00
259.65,3369.00
261.74,3346.00
263.83,3333.00
265.92,3236.00
268.00,3188.00
270.09,3103.00
272.17,3152.00
274.25,3116.00
276.34,3062.00
278.42,2995.00
280.50,3006.00
282.58,3052.00
284.65,3006.00
286.73,2987.00
288.81,3030.00
290.88,3006.00
292.96,2903.00
295.03,2924.00
297.10,2965.00
299.18,2958.00
301.25,3004.00
303.32,3028.00
305.38,3051.00
307.45,2955.00
309.52,3014.00
311.58,3029.00
313.65,3029.00
315.71,2963.00
317.77,3012.00
319.84,3013.00
321.90,3007.00
323.96,2958.00
326.01,2928.00
328.07,2975.00
330.13,3092.00
332.18,2996.00
334.24,2991.00
336.29,2956.00
338.35,2928.00
340.40,2952.00
342.45,2930.00
344.50,2850.00
346.55,2835.00
348.59,2842.00
350.64,2882.00
352.69,2809.00
354.73,2866.00
356.78,2779.00
358.82,2747.00
360.86,2768.00
362.90,2732.00
364.94,2781.00
366.98,2697.00
369.02,2747.00
371.06,2637.00
373.09,2648.00
375.13,2505.00
377.16,2591.00
379.19,2545.00
381.23,2511.00
383.26,2471.00
385.29,2477.00
387.32,2467.00
389.34,2440.00
391.37,2376.00
393.40,2448.00
395.42,2364.00
397.45,2317.00
399.47,2302.00
401.49,2329.00
403.51,2347.00
405.53,2327.00
407.55,2380.00
409.57,2367.00
411.59,2357.00
413.61,2334.00
415.62,2431.00
417.64,2374.00
419.65,2433.00
421.66,2446.00
423.67,2469.00
425.68,2433.00
427.69,2532.00
429.70,2563.00
431.71,2614.00
433.71,2524.00
435.72,2553.00
437.72,2625.00
439.73,2646.00
441.73,2676.00
443.73,2756.00
445.73,2768.00
447.73,2797.00
449.73,2742.00
451.73,2819.00
453.73,2840.00
455.72,2800.00
457.72,2869.00
459.71,2880.00
461.70,2979.00
463.69,2964.00
465.69,2920.00
467.68,2867.00
469.66,2986.00
471.65,2954.00
473.64,2947.00
475.62,2958.00
477.61,3025.00
479.59,3080.00
481.58,3089.00
483.56,3015.00
485.54,3010.00
487.52,3078.00
489.50,3013.00
491.48,3038.00
493.45,3046.00
495.43,3093.00
497.40,3057.00
499.38,3070.00
501.35,3074.00
503.32,2981.00
505.29,3004.00
507.26,2968.00
509.23,3002.00
511.20,2998.00
513.17,2992.00
515.13,2973.00
517.10,2887.00
519.06,2930.00
521.03,2867.00
522.99,2931.00
524.95,2882.00
526.91,2841.00
528.87,2724.00
530.83,2741.00
532.79,2650.00
534.74,2677.00
536.70,2576.00
538.65,2589.00
540.61,2533.00
542.56,2593.00
544.51,2532.00
546.46,2435.00
548.41,2393.00
550.36,2332.00
552.30,2385.00
554.25,2320.00
556.20,2326.00
558.14,2258.00
560.08,2173.00
562.03,2191.00
563.97,2138.00
565.91,2156.00
567.85,2127.00
569.79,2154.00
571.73,2133.00
573.66,2085.00
575.60,2093.00
577.53,2067.00
579.47,2030.00
581.40,2013.00
583.33,2076.00
585.26,2057.00
587.19,2051.00
589.12,2098.00
591.05,2066.00
592.97,2071.00
594.90,2150.00
596.83,2071.00
598.75,2090.00
600.67,2176.00
602.59,2191.00
604.51,2115.00
606.43,2222.00
608.35,2173.00
610.27,2213.00
612.19,2159.00
614.10,2247.00
616.02,2210.00
617.93,2284.00
619.85,2349.00
621.76,2353.00
623.67,2350.00
625.58,2479.00
627.49,2336.00
629.40,2384.00
631.30,2422.00
633.21,2482.00
635.12,2547.00
637.02,2468.00
638.92,2523.00
640.83,2627.00
642.73,2601.00
644.63,2648.00
646.53,2696.00
648.42,2747.00
650.32,2814.00
652.22,2823.00
654.11,2855.00
656.01,2848.00
657.90,2874.00
659.79,2842.00
661.68,2945.00
663.58,2928.00
665.46,2918.00
667.35,2970.00
669.24,3006.00
671.13,3089.00
673.01,3082.00
674.90,3137.00
676.78,3047.00
678.66,3181.00
680.54,3185.00
682.43,3156.00
684.31,3135.00
686.18,3205.00
688.06,3255.00
689.94,3208.00
691.81,3264.00
693.69,3218.00
695.56,3248.00
697.43,3219.00
699.31,3264.00
701.18,3230.00
703.05,3185.00
704.92,3230.00
706.78,3236.00
708.65,3114.00
710.52,3230.00
712.38,3158.00
714.25,3232.00
716.11,3108.00
717.97,3132.00
719.83,3116.00
721.69,3168.00
723.55,3099.00
725.41,3169.00
727.27,3025.00
729.12,3061.00
730.98,3094.00
732.83,3076.00
734.68,3036.00
736.54,2960.00
738.39,2964.00
740.24,3002.00
742.09,2982.00
743.93,2972.00
745.78,2977.00
747.63,3031.00
749.47,2958.00
751.32,2934.00
753.16,2956.00
755.00,2922.00
756.84,2915.00
758.68,2928.00
760.52,2920.00
762.36,2850.00
764.20,2888.00
766.04,2861.00
767.87,2817.00
769.71,2819.00
771.54,2911.00
773.37,2817.00
775.20,2814.00
777.03,2810.00
778.86,2764.00
780.69,2773.00
782.52,2867.00
784.35,2861.00
786.17,2758.00
788.00,2768.00
789.82,2792.00
791.64,2747.00
793.46,2760.00
795.28,2804.00
797.10,2822.00
798.92,2807.00
800.74,2741.00
802.56,2785.00
804.37,2737.00
806.19,2772.00
808.00,2764.00
809.82,2779.00
811.63,2847.00
813.44,2697.00
815.25,2715.00
817.06,2765.00
818.86,2675.00
820.67,2726.00
822.48,2787.00
824.28,2711.00
826.09,2709.00
827.89,2853.00
829.69,2669.00
831.49,2768.00
833.29,2690.00
835.09,2682.00
836.89,2667.00
838.69,2739.00
840.48,2652.00
842.28,2726.00
844.07,2680.00
845.87,2752.00
847.66,2629.00
849.45,2644.00
851.24,2633.00
853.03,2646.00
854.82,2652.00
856.61,2582.00
858.39,2662.00
860.18,2617.00
861.96,2663.00
863.75,2582.00
865.53,2606.00
867.31,2647.00
869.09,2604.00
870.87,2629.00
872.65,2616.00
874.43,2667.00
876.20,2553.00
877.98,2633.00
879.75,2561.00
881.53,2562.00
883.30,2608.00
885.07,2570.00
886.84,2673.00
888.61,2576.00
890.38,2652.00
892.15,2559.00
893.91,2620.00
895.68,2650.00
897.44,2646.00
899.21,2633.00
900.97,2625.00
902.73,2587.00
904.49,2566.00
906.25,2492.00
908.01,2587.00
909.77,2566.00
911.53,2532.00
913.28,2621.00
915.04,2562.00
916.79,2565.00
918.55,2532.00
920.30,2469.00
922.05,2562.00
923.80,2473.00
925.55,2458.00
927.30,2471.00
929.05,2494.00
930.79,2549.00
932.54,2475.00
934.28,2517.00
936.02,2473.00
937.77,2397.00
939.51,2450.00
941.25,2431.00
942.99,2373.00
944.73,2490.00
946.46,2449.00
948.20,2393.00
949.94,2385.00
951.67,2401.00
953.40,2414.00
955.14,2294.00
956.87,2362.00
958.60,2399.00
960.33,2364.00
962.06,2260.00
963.78,2314.00
965.51,2275.00
967.24,2356.00
968.96,2304.00
970.69,2308.00
972.41,2335.00
974.13,2220.00
975.85,2304.00
977.57,2222.00
979.29,2125.00
981.01,2222.00
982.73,2177.00
984.44,2170.00
986.16,2102.00
987.87,2117.00
989.58,2201.00
991.30,2149.00
993.01,2123.00
994.72,2102.00
996.43,2099.00
998.13,2087.00
999.84,2083.00
1001.55,2091.00
1003.25,2080.00
1004.96,2045.00
1006.66,2041.00
1008.36,2098.00
1010.06,2041.00
1011.76,2079.00
1013.46,2035.00
1015.16,2039.00
1016.86,2024.00
1018.56,2024.00
1020.25,2026.00
1021.95,1973.00
1023.64,2045.00
1025.33,2024.00
1027.02,2047.00
1028.71,2072.00
1030.40,2104.00
1032.09,2037.00
1033.78,2045.00
1035.47,2039.00
1037.15,2030.00
1038.84,2028.00
1040.52,2036.00
1042.20,2085.00
1043.89,2051.00
1045.57,2087.00
1047.25,2076.00
1048.93,2016.00
1050.60,1974.00
1052.28,2034.00
1053.96,2127.00
1055.63,2083.00
1057.31,2052.00
1058.98,2043.00
1060.65,2047.00
1062.32,2051.00
1063.99,2051.00
1065.66,2068.00
1067.33,2041.00
1069.00,2058.00
1070.66,2032.00
1072.33,2009.00
1073.99,1994.00
1075.66,1978.00
1077.32,1967.00
1078.98,1965.00
1080.64,1980.00
1082.30,1942.00
1083.96,2011.00
1085.62,1921.00
1087.27,1891.00
1088.93,1900.00
1090.58,1942.00
1092.24,1826.00
1093.89,1866.00
1095.54,1856.00
1097.19,1841.00
1098.84,1847.00
1100.49,1819.00
1102.14,1851.00
1103.79,1815.00
1105.43,1794.00
1107.08,1750.00
1108.72,1780.00
1110.36,1752.00
1112.01,1739.00
1113.65,1756.00
1115.29,1697.00
1116.93,1700.00
1118.56,1712.00
1120.20,1687.00
1121.84,1731.00
1123.47,1616.00
1125.11,1666.00
1126.74,1602.00
1128.37,1657.00
1130.00,1559.00
1131.63,1567.00
1133.26,1588.00
1134.89,1655.00
1136.52,1563.00
1138.14,1520.00
1139.77,1576.00
1141.39,1567.00
1143.02,1575.00
1144.64,1501.00
1146.26,1518.00
1147.88,1524.00
1149.50,1571.00
1151.12,1451.00
1152.74,1459.00
1154.36,1474.00
1155.97,1532.00
1157.59,1451.00
1159.20,1442.00
1160.81,1472.00
1162.42,1457.00
1164.04,1470.00
1165.65,1474.00
1167.25,1410.00
1168.86,1389.00
1170.47,1445.00
1172.08,1455.00
1173.68,1435.00
1175.28,1423.00
1176.89,1367.00
1178.49,1385.00
1180.09,1395.00
1181.69,1355.00
1183.29,1373.00
1184.89,1402.00
1186.49,1370.00
1188.08,1377.00
1189.68,1324.00
1191.27,1351.00
1192.87,1362.00
1194.46,1358.00
1196.05,1313.00
1197.64,1295.00
1199.23,1345.00
1200.82,1330.00
1202.41,1311.00
1203.99,1272.00
1205.58,1343.00
1207.16,1248.00
1208.75,1261.00
1210.33,1261.00
1211.91,1260.00
1213.49,1259.00
1215.07,1294.00
1216.65,1259.00
1218.23,1275.00
1219.81,1273.00
1221.38,1248.00
1222.96,1164.00
1224.53,1227.00
1226.11,1218.00
1227.68,1194.00
1229.25,1215.00
1230.82,1170.00
1232.39,1168.00
1233.96,1213.00
1235.52,1202.00
1237.09,1202.00
1238.66,1164.00
1240.22,1170.00
1241.78,1206.00
1243.35,1193.00
1244.91,1140.00
1246.47,1128.00
1248.03,1166.00
1249.59,1193.00
1251.14,1178.00
1252.70,1157.00
1254.26,1086.00
1255.81,1158.00
1257.36,1207.00
1258.92,1134.00
1260.47,1102.00
1262.02,1153.00
1263.57,1210.00
1265.12,1157.00
1266.67,1200.00
1268.21,1136.00
1269.76,1185.00
1271.31,1210.00
1272.85,1191.00
1274.39,1185.00
1275.93,1237.00
1277.48,1240.00
1279.02,1187.00
1280.56,1225.00
1282.09,1206.00
1283.63,1265.00
1285.17,1328.00
1286.70,1278.00
1288.24,1252.00
1289.77,1290.00
1291.30,1324.00
1292.84,1316.00
1294.37,1345.00
1295.90,1309.00
1297.42,1368.00
1298.95,1341.00
1300.48,1392.00
1302.00,1351.00
1303.53,1388.00
1305.05,1425.00
1306.58,1422.00
1308.10,1455.00
1309.62,1438.00
1311.14,1461.00
1312.66,1500.00
1314.18,1488.00
1315.69,1434.00
1317.21,1440.00
1318.72,1461.00
1320.24,1464.00
1321.75,1431.00
1323.26,1448.00
1324.78,1427.00
1326.29,1445.00
1327.80,1447.00
1329.30,1404.00
1330.81,1376.00
1332.32,1396.00
1333.82,1404.00
1335.33,1367.00
1336.83,1341.00
1338.33,1309.00
1339.84,1338.00
1341.34,1322.00
1342.84,1276.00
1344.34,1225.00
1345.83,1237.00
1347.33,1231.00
1348.83,1277.00
1350.32,1168.00
1351.82,1121.00
1353.31,1175.00
1354.80,1187.00
1356.29,1060.00
1357.78,1086.00
1359.27,1109.00
1360.76,1081.00
1362.25,1096.00
1363.73,1031.00
1365.22,1020.00
1366.70,1019.00
1368.19,1037.00
1369.67,970.00
1371.15,972.00
1372.63,1033.00
1374.11,974.00
1375.59,1025.00
1377.07,1040.00
1378.54,1038.00
1380.02,1009.00
1381.49,1031.00
1382.97,1082.00
1384.44,1103.00
1385.91,1147.00
1387.38,1191.00
1388.85,1276.00
1390.32,1364.00
1391.79,1581.00
1393.26,1792.00
1394.72,2118.00
1396.19,2467.00
1397.65,2958.00
1399.12,3445.00
1400.58,3890.00
1402.04,4199.00
1403.50,4406.00
1404.96,4423.00
1406.42,4326.00
1407.88,4115.00
1409.33,3753.00
1410.79,3453.00
1412.24,3129.00
1413.70,2937.00
1415.15,2627.00
1416.60,2504.00
1418.05,2382.00
1419.50,2300.00
1420.95,2234.00
1422.40,2123.00
1423.84,2100.00
1425.29,2105.00
1426.74,2072.00
1428.18,1984.00
1429.62,1980.00
1431.06,1881.00
1432.51,1861.00
1433.95,1761.00
1435.39,1748.00
1436.82,1636.00
1438.26,1623.00
1439.70,1551.00
1441.13,1488.00
1442.57,1370.00
1444.00,1396.00
1445.43,1355.00
1446.86,1253.00
1448.30,1155.00
1449.72,1117.00
1451.15,1058.00
1452.58,959.00
1454.01,919.00
1455.43,845.00
1456.86,798.00
1458.28,787.00
1459.71,753.00
1461.13,667.00
1462.55,687.00
1463.97,660.00
1465.39,660.00
1466.81,691.00
1468.22,650.00
1469.64,630.00
1471.06,626.00
1472.47,650.00
1473.88,615.00
1475.30,596.00
1476.71,599.00
1478.12,602.00
1479.53,595.00
1480.94,603.00
1482.34,630.00
1483.75,613.00
1485.16,605.00
1486.56,614.00
1487.96,556.00
1489.37,611.00
1490.77,628.00
1492.17,620.00
1493.57,575.00
1494.97,598.00
1496.37,628.00
1497.76,618.00
1499.16,610.00
1500.56,600.00
1501.95,631.00
1503.34,594.00
1504.74,601.00
1506.13,609.00
1507.52,618.00
1508.91,630.00
1510.30,643.00
1511.68,603.00
1513.07,601.00
1514.46,624.00
1515.84,608.00
1517.22,611.00
1518.61,592.00
1519.99,618.00
1521.37,609.00
1522.75,643.00
1524.13,630.00
1525.51,603.00
1526.88,607.00
1528.26,618.00
1529.63,634.00
1531.01,635.00
1532.38,611.00
1533.75,651.00
1535.13,639.00
1536.50,633.00
1537.87,576.00
1539.23,635.00
1540.60,628.00
1541.97,639.00
1543.33,637.00
1544.70,586.00
1546.06,591.00
1547.42,626.00
1548.79,626.00
1550.15,618.00
1551.51,615.00
1552.87,605.00
1554.22,592.00
1555.58,603.00
1556.94,557.00
1558.29,569.00
1559.65,641.00
1561.00,618.00
1562.35,590.00
1563.70,593.00
1565.05,608.00
1566.40,628.00
1567.75,599.00
1569.10,624.00
1570.45,593.00
1571.79,620.00
1573.14,609.00
1574.48,640.00
1575.82,608.00
1577.16,639.00
1578.50,618.00
1579.84,597.00
1581.18,597.00
1582.52,638.00
1583.86,634.00
1585.19,641.00
1586.53,603.00
1587.86,612.00
1589.20,622.00
1590.53,611.00
1591.86,596.00
1593.19,584.00
1594.52,601.00
1595.85,603.00
1597.18,613.00
1598.50,600.00
1599.83,579.00
1601.15,610.00
1602.48,626.00
1603.80,647.00
1605.12,645.00
1606.44,592.00
1607.76,618.00
1609.08,637.00
1610.40,596.00
1611.72,652.00
1613.03,645.00
1614.35,612.00
1615.66,626.00
1616.97,620.00
1618.29,620.00
1619.60,643.00
1620.91,650.00
1622.22,626.00
1623.53,631.00
1624.83,645.00
1626.14,640.00
1627.45,646.00
1628.75,651.00
1630.05,673.00
1631.36,668.00
1632.66,667.00
1633.96,658.00
1635.26,641.00
1636.56,677.00
1637.86,677.00
1639.15,704.00
1640.45,680.00
1641.74,727.00
1643.04,679.00
1644.33,744.00
1645.62,708.00
1646.92,704.00
1648.21,750.00
1649.50,711.00
1650.78,734.00
1652.07,727.00
1653.36,720.00
1654.64,744.00
1655.93,763.00
1657.21,769.00
1658.50,763.00
1659.78,777.00
1661.06,799.00
1662.34,840.00
1663.62,829.00
1664.90,853.00
1666.17,869.00
1667.45,874.00
1668.72,862.00
1670.00,841.00
1671.27,860.00
1672.54,959.00
1673.82,944.00
1675.09,953.00
1676.36,995.00
1677.62,1003.00
1678.89,1024.00
1680.16,988.00
1681.42,1012.00
1682.69,1077.00
1683.95,1134.00
1685.22,1110.00
1686.48,1172.00
1687.74,1165.00
1689.00,1245.00
1690.26,1302.00
1691.52,1324.00
1692.77,1358.00
1694.03,1440.00
1695.28,1531.00
1696.54,1619.00
1697.79,1722.00
1699.04,1904.00
1700.30,2182.00
1701.55,2448.00
1702.80,2846.00
1704.04,3428.00
1705.29,4038.00
1706.54,4702.00
1707.78,5287.00
1709.03,5584.00
1710.27,5737.00
1711.52,5717.00
1712.76,5382.00
1714.00,4912.00
1715.24,4381.00
1716.48,3814.00
1717.72,3386.00
1718.95,3013.00
1720.19,2691.00
1721.43,2384.00
1722.66,2221.00
1723.89,2128.00
1725.13,1978.00
1726.36,1956.00
1727.59,1906.00
1728.82,1870.00
1730.05,1912.00
1731.28,1879.00
1732.50,1865.00
1733.73,1905.00
1734.95,1933.00
1736.18,1935.00
1737.40,1972.00
1738.62,1969.00
1739.84,2031.00
1741.06,2071.00
1742.28,2071.00
1743.50,2060.00
1744.72,2125.00
1745.94,2165.00
1747.15,2180.00
1748.37,2189.00
1749.58,2213.00
1750.79,2233.00
1752.00,2258.00
1753.21,2289.00
1754.42,2292.00
1755.63,2317.00
1756.84,2376.00
1758.05,2355.00
1759.25,2369.00
1760.46,2371.00
1761.66,2376.00
1762.87,2410.00
1764.07,2348.00
1765.27,2380.00
1766.47,2381.00
1767.67,2422.00
1768.87,2408.00
1770.07,2403.00
1771.26,2368.00
1772.46,2397.00
1773.65,2324.00
1774.85,2330.00
1776.04,2330.00
1777.23,2348.00
1778.42,2285.00
1779.61,2276.00
1780.80,2300.00
1781.99,2206.00
1783.18,2174.00
1784.36,2148.00
1785.55,2111.00
1786.73,2058.00
1787.92,2038.00
1789.10,1999.00
1790.28,1984.00
1791.46,1948.00
1792.64,1878.00
1793.82,1807.00
1795.00,1805.00
1796.17,1754.00
1797.35,1683.00
1798.52,1662.00
1799.70,1582.00
1800.87,1558.00
1802.04,1558.00
1803.21,1461.00
1804.38,1423.00
1805.55,1425.00
1806.72,1326.00
1807.89,1261.00
1809.05,1292.00
1810.22,1183.00
1811.38,1162.00
1812.55,1136.00
1813.71,1089.00
1814.87,1073.00
1816.03,1071.00
1817.19,966.00
1818.35,959.00
1819.51,963.00
1820.67,912.00
1821.82,860.00
1822.98,856.00
1824.13,824.00
1825.28,766.00
1826.44,809.00
1827.59,786.00
1828.74,774.00
1829.89,712.00
1831.04,702.00
1832.18,700.00
1833.33,687.00
1834.48,605.00
1835.62,651.00
1836.76,610.00
1837.91,630.00
1839.05,575.00
1840.19,544.00
1841.33,588.00
1842.47,578.00
1843.61,546.00
1844.74,551.00
1845.88,548.00
1847.01,552.00
1848.15,547.00
1849.28,504.00
1850.41,520.00
1851.55,520.00
1852.68,517.00
1853.81,464.00
