ENLIGHTEN Version,1.6.8
Measurement ID,20190528-124613-160513-WP-00193
Serial Number,WP-00193
Label,Ammonium Nitrate
Integration Time,200
Timestamp,2019-05-28 12:46:13.160513
Note,
Temperature,-99
CCD C0,536.9577026367188
CCD C1,0.11947000026702881
CCD C2,-1.3838999620929826e-05
CCD C3,-3.2027001051204707e-09
CCD Offset,0
CCD Gain,1.9
Laser Wavelength,532.0
Laser Enable,False
Laser Power,100.0
Laser Temperature,-99
Pixel Count,1024

Wavenumber,Processed
173.55,8.00
177.69,21.00
181.83,-19.00
185.97,19.00
190.10,-12.00
194.23,-17.00
198.36,11.00
202.49,2.00
206.61,-9.00
210.73,-9.00
214.85,26.00
218.96,-3.00
223.07,4.00
227.18,19.00
231.29,-8.00
235.39,2.00
239.49,36.00
243.59,-16.00
247.68,14.00
251.78,36.00
255.87,14.00
259.95,-10.00
264.04,34.00
268.12,57.00
272.19,25.00
276.27,64.00
280.34,63.00
284.41,60.00
288.48,105.00
292.54,171.00
296.61,148.00
300.67,213.00
304.72,312.00
308.78,367.00
312.83,458.00
316.87,584.00
320.92,731.00
324.96,896.00
329.00,1147.00
333.04,1324.00
337.07,1481.00
341.10,1682.00
345.13,1929.00
349.16,1957.00
353.18,2104.00
357.20,2171.00
361.22,2251.00
365.24,2327.00
369.25,2370.00
373.26,2405.00
377.27,2442.00
381.27,2465.00
385.27,2505.00
389.27,2443.00
393.27,2513.00
397.26,2482.00
401.25,2560.00
405.24,2561.00
409.22,2538.00
413.21,2518.00
417.19,2595.00
421.16,2678.00
425.14,2671.00
429.11,2686.00
433.08,2712.00
437.05,2711.00
441.01,2751.00
444.97,2710.00
448.93,2715.00
452.89,2803.00
456.84,2775.00
460.79,2842.00
464.74,2869.00
468.68,2939.00
472.62,2897.00
476.56,2917.00
480.50,2906.00
484.44,2955.00
488.37,2962.00
492.30,2962.00
496.22,2983.00
500.15,2998.00
504.07,3072.00
507.99,3179.00
511.90,3133.00
515.81,3166.00
519.72,3204.00
523.63,3215.00
527.54,3200.00
531.44,3238.00
535.34,3184.00
539.24,3175.00
543.13,3286.00
547.02,3258.00
550.91,3238.00
554.80,3267.00
558.68,3318.00
562.56,3322.00
566.44,3407.00
570.32,3360.00
574.19,3406.00
578.06,3424.00
581.93,3420.00
585.80,3462.00
589.66,3443.00
593.52,3540.00
597.38,3546.00
601.23,3580.00
605.09,3589.00
608.94,3565.00
612.78,3643.00
616.63,3652.00
620.47,3592.00
624.31,3584.00
628.15,3723.00
631.98,3664.00
635.81,3608.00
639.64,3699.00
643.47,3793.00
647.29,3738.00
651.11,3753.00
654.93,3841.00
658.75,3820.00
662.56,3803.00
666.37,3863.00
670.18,3896.00
673.99,3947.00
677.79,3940.00
681.59,3938.00
685.39,3962.00
689.18,4085.00
692.97,4126.00
696.77,4205.00
700.55,4453.00
704.34,4676.00
708.12,5226.00
711.90,6111.00
715.68,6489.00
719.45,6348.00
723.22,5861.00
726.99,4851.00
730.76,4303.00
734.53,4199.00
738.29,4043.00
742.05,4117.00
745.80,4062.00
749.56,4043.00
753.31,4042.00
757.06,4079.00
760.80,4081.00
764.55,4088.00
768.29,4125.00
772.03,4094.00
775.77,4067.00
779.50,4145.00
783.23,4217.00
786.96,4175.00
790.69,4212.00
794.41,4192.00
798.13,4198.00
801.85,4146.00
805.57,4206.00
809.28,4231.00
812.99,4179.00
816.70,4231.00
820.40,4309.00
824.11,4206.00
827.81,4236.00
831.51,4204.00
835.20,4216.00
838.90,4165.00
842.59,4191.00
846.28,4200.00
849.96,4208.00
853.65,4229.00
857.33,4251.00
861.00,4234.00
864.68,4301.00
868.35,4286.00
872.02,4229.00
875.69,4283.00
879.36,4293.00
883.02,4306.00
886.68,4312.00
890.34,4324.00
894.00,4292.00
897.65,4275.00
901.30,4284.00
904.95,4339.00
908.59,4278.00
912.24,4250.00
915.88,4250.00
919.52,4333.00
923.15,4287.00
926.79,4269.00
930.42,4261.00
934.05,4297.00
937.67,4318.00
941.30,4283.00
944.92,4239.00
948.54,4263.00
952.15,4218.00
955.77,4308.00
959.38,4250.00
962.99,4337.00
966.59,4246.00
970.20,4360.00
973.80,4392.00
977.40,4410.00
980.99,4434.00
984.59,4410.00
988.18,4444.00
991.77,4402.00
995.35,4425.00
998.94,4436.00
1002.52,4592.00
1006.10,4598.00
1009.67,4625.00
1013.25,4769.00
1016.82,5018.00
1020.39,5368.00
1023.96,6072.00
1027.52,7253.00
1031.08,9204.00
1034.64,13572.00
1038.20,21559.00
1041.76,28594.00
1045.31,30129.00
1048.86,26984.00
1052.41,19208.00
1055.95,10699.00
1059.49,6487.00
1063.03,5296.00
1066.57,4958.00
1070.11,4792.00
1073.64,4729.00
1077.17,4541.00
1080.70,4528.00
1084.22,4530.00
1087.75,4382.00
1091.27,4453.00
1094.79,4421.00
1098.30,4322.00
1101.82,4411.00
1105.33,4337.00
1108.84,4244.00
1112.34,4310.00
1115.85,4322.00
1119.35,4257.00
1122.85,4255.00
1126.35,4307.00
1129.84,4301.00
1133.33,4268.00
1136.82,4284.00
1140.31,4253.00
1143.79,4274.00
1147.28,4215.00
1150.76,4269.00
1154.23,4145.00
1157.71,4218.00
1161.18,4277.00
1164.65,4195.00
1168.12,4308.00
1171.59,4241.00
1175.05,4236.00
1178.51,4276.00
1181.97,4311.00
1185.43,4236.00
1188.88,4225.00
1192.33,4303.00
1195.78,4278.00
1199.23,4315.00
1202.67,4233.00
1206.11,4254.00
1209.55,4213.00
1212.99,4248.00
1216.43,4223.00
1219.86,4210.00
1223.29,4166.00
1226.72,4183.00
1230.14,4094.00
1233.57,4187.00
1236.99,4193.00
1240.40,4159.00
1243.82,4235.00
1247.23,4256.00
1250.65,4254.00
1254.06,4221.00
1257.46,4308.00
1260.87,4231.00
1264.27,4250.00
1267.67,4362.00
1271.07,4566.00
1274.46,4540.00
1277.85,4889.00
1281.24,5176.00
1284.63,5422.00
1288.02,5578.00
1291.40,5543.00
1294.78,5346.00
1298.16,5153.00
1301.54,4864.00
1304.91,4636.00
1308.28,4461.00
1311.65,4322.00
1315.02,4357.00
1318.38,4305.00
1321.75,4246.00
1325.11,4211.00
1328.46,4204.00
1331.82,4219.00
1335.17,4226.00
1338.52,4098.00
1341.87,4087.00
1345.22,4166.00
1348.56,4099.00
1351.90,4158.00
1355.24,4105.00
1358.58,4122.00
1361.92,4138.00
1365.25,4182.00
1368.58,4132.00
1371.91,4090.00
1375.23,4140.00
1378.55,4154.00
1381.88,4198.00
1385.19,4301.00
1388.51,4339.00
1391.82,4411.00
1395.14,4516.00
1398.45,4674.00
1401.75,4811.00
1405.06,5083.00
1408.36,5324.00
1411.66,5471.00
1414.96,5462.00
1418.25,5562.00
1421.55,5531.00
1424.84,5483.00
1428.13,5346.00
1431.41,5079.00
1434.70,4896.00
1437.98,4889.00
1441.26,4722.00
1444.54,4655.00
1447.81,4671.00
1451.09,4744.00
1454.36,4733.00
1457.63,4930.00
1460.89,4967.00
1464.16,4958.00
1467.42,4869.00
1470.68,4742.00
1473.93,4596.00
1477.19,4461.00
1480.44,4414.00
1483.69,4236.00
1486.94,4204.00
1490.19,4218.00
1493.43,4221.00
1496.67,4176.00
1499.91,4161.00
1503.15,4069.00
1506.38,4050.00
1509.61,4056.00
1512.84,4079.00
1516.07,4094.00
1519.30,4075.00
1522.52,3988.00
1525.74,3955.00
1528.96,3977.00
1532.18,4029.00
1535.39,3969.00
1538.60,3940.00
1541.81,4024.00
1545.02,3959.00
1548.23,3989.00
1551.43,3921.00
1554.63,3945.00
1557.83,3915.00
1561.03,3867.00
1564.22,3837.00
1567.41,3877.00
1570.60,3888.00
1573.79,3824.00
1576.98,3894.00
1580.16,3837.00
1583.34,3927.00
1586.52,3774.00
1589.70,3783.00
1592.87,3837.00
1596.04,3761.00
1599.21,3782.00
1602.38,3792.00
1605.55,3754.00
1608.71,3781.00
1611.87,3814.00
1615.03,3785.00
1618.19,3740.00
1621.34,3789.00
1624.50,3732.00
1627.65,3683.00
1630.79,3721.00
1633.94,3808.00
1637.08,3780.00
1640.22,3776.00
1643.36,3829.00
1646.50,3968.00
1649.64,4103.00
1652.77,4353.00
1655.90,4389.00
1659.03,4336.00
1662.15,4319.00
1665.28,4097.00
1668.40,3936.00
1671.52,3892.00
1674.64,3927.00
1677.75,3851.00
1680.86,3887.00
1683.97,3801.00
1687.08,3847.00
1690.19,3858.00
1693.29,3803.00
1696.40,3768.00
1699.50,3846.00
1702.59,3788.00
1705.69,3774.00
1708.78,3705.00
1711.87,3731.00
1714.96,3732.00
1718.05,3769.00
1721.13,3677.00
1724.22,3764.00
1727.30,3630.00
1730.38,3721.00
1733.45,3670.00
1736.53,3747.00
1739.60,3664.00
1742.67,3647.00
1745.73,3615.00
1748.80,3650.00
1751.86,3651.00
1754.92,3658.00
1757.98,3660.00
1761.04,3696.00
1764.09,3634.00
1767.15,3599.00
1770.20,3654.00
1773.25,3639.00
1776.29,3660.00
1779.34,3639.00
1782.38,3572.00
1785.42,3668.00
1788.45,3592.00
1791.49,3580.00
1794.52,3603.00
1797.55,3502.00
1800.58,3549.00
1803.61,3559.00
1806.63,3531.00
1809.66,3609.00
1812.68,3561.00
1815.70,3589.00
1818.71,3559.00
1821.73,3515.00
1824.74,3449.00
1827.75,3471.00
1830.75,3503.00
1833.76,3463.00
1836.76,3395.00
1839.77,3415.00
1842.76,3487.00
1845.76,3425.00
1848.76,3481.00
1851.75,3449.00
1854.74,3445.00
1857.73,3468.00
1860.72,3401.00
1863.70,3411.00
1866.68,3386.00
1869.66,3420.00
1872.64,3390.00
1875.62,3396.00
1878.59,3367.00
1881.56,3354.00
1884.53,3392.00
1887.50,3394.00
1890.46,3406.00
1893.43,3344.00
1896.39,3428.00
1899.35,3418.00
1902.31,3326.00
1905.26,3376.00
1908.21,3357.00
1911.16,3422.00
1914.11,3359.00
1917.06,3354.00
1920.00,3372.00
1922.95,3430.00
1925.89,3388.00
1928.82,3367.00
1931.76,3411.00
1934.70,3333.00
1937.63,3381.00
1940.56,3357.00
1943.48,3400.00
1946.41,3394.00
1949.33,3390.00
1952.26,3413.00
1955.18,3487.00
1958.09,3375.00
1961.01,3415.00
1963.92,3331.00
1966.83,3363.00
1969.74,3361.00
1972.65,3318.00
1975.55,3287.00
1978.46,3343.00
1981.36,3325.00
1984.26,3377.00
1987.15,3302.00
1990.05,3321.00
1992.94,3346.00
1995.83,3288.00
1998.72,3251.00
2001.61,3261.00
2004.49,3269.00
2007.37,3272.00
2010.25,3249.00
2013.13,3283.00
2016.01,3325.00
2018.88,3289.00
2021.75,3299.00
2024.63,3304.00
2027.49,3299.00
2030.36,3261.00
2033.22,3201.00
2036.08,3243.00
2038.94,3239.00
2041.80,3192.00
2044.66,3238.00
2047.51,3212.00
2050.36,3280.00
2053.21,3182.00
2056.06,3219.00
2058.91,3103.00
2061.75,3211.00
2064.59,3217.00
2067.43,3123.00
2070.27,3127.00
2073.10,3182.00
2075.94,3175.00
2078.77,3228.00
2081.60,3206.00
2084.43,3200.00
2087.25,3166.00
2090.07,3173.00
2092.89,3152.00
2095.71,3144.00
2098.53,3097.00
2101.35,3080.00
2104.16,3042.00
2106.97,3196.00
2109.78,3093.00
2112.59,3055.00
2115.39,3118.00
2118.19,3083.00
2121.00,3054.00
2123.79,3031.00
2126.59,3063.00
2129.39,3000.00
2132.18,3016.00
2134.97,3054.00
2137.76,3036.00
2140.55,3036.00
2143.33,3007.00
2146.11,3017.00
2148.90,2964.00
2151.67,3015.00
2154.45,2949.00
2157.23,2975.00
2160.00,3017.00
2162.77,2933.00
2165.54,2975.00
2168.31,2968.00
2171.07,3051.00
2173.83,2996.00
2176.59,2895.00
2179.35,2965.00
2182.11,2962.00
2184.87,2987.00
2187.62,2935.00
2190.37,2903.00
2193.12,2930.00
2195.87,2941.00
2198.61,2917.00
2201.35,2908.00
2204.09,2987.00
2206.83,2970.00
2209.57,2927.00
2212.31,2903.00
2215.04,2920.00
2217.77,2924.00
2220.50,2884.00
2223.23,2864.00
2225.95,2844.00
2228.68,2935.00
2231.40,2889.00
2234.12,2886.00
2236.83,2903.00
2239.55,2821.00
2242.26,2850.00
2244.97,2915.00
2247.68,2912.00
2250.39,2828.00
2253.10,2905.00
2255.80,2894.00
2258.50,2869.00
2261.20,2838.00
2263.90,2896.00
2266.59,2870.00
2269.29,2876.00
2271.98,2861.00
2274.67,2901.00
2277.36,2775.00
2280.04,2854.00
2282.73,2846.00
2285.41,2749.00
2288.09,2793.00
2290.77,2800.00
2293.44,2772.00
2296.12,2831.00
2298.79,2770.00
2301.46,2733.00
2304.13,2824.00
2306.80,2804.00
2309.46,2764.00
2312.12,2795.00
2314.78,2764.00
2317.44,2755.00
2320.10,2748.00
2322.75,2783.00
2325.41,2765.00
2328.06,2737.00
2330.71,2751.00
2333.35,2748.00
2336.00,2651.00
2338.64,2764.00
2341.28,2771.00
2343.92,2764.00
2346.56,2691.00
2349.19,2644.00
2351.83,2672.00
2354.46,2698.00
2357.09,2677.00
2359.72,2714.00
2362.34,2635.00
2364.97,2703.00
2367.59,2713.00
2370.21,2690.00
2372.83,2700.00
2375.44,2637.00
2378.06,2656.00
2380.67,2689.00
2383.28,2707.00
2385.89,2584.00
2388.49,2669.00
2391.10,2678.00
2393.70,2604.00
2396.30,2662.00
2398.90,2622.00
2401.50,2639.00
2404.09,2595.00
2406.68,2637.00
2409.28,2557.00
2411.87,2582.00
2414.45,2603.00
2417.04,2625.00
2419.62,2551.00
2422.20,2569.00
2424.78,2612.00
2427.36,2546.00
2429.94,2532.00
2432.51,2567.00
2435.08,2528.00
2437.65,2629.00
2440.22,2616.00
2442.79,2538.00
2445.35,2553.00
2447.92,2547.00
2450.48,2515.00
2453.03,2513.00
2455.59,2496.00
2458.15,2529.00
2460.70,2505.00
2463.25,2555.00
2465.80,2524.00
2468.35,2555.00
2470.89,2572.00
2473.44,2486.00
2475.98,2524.00
2478.52,2420.00
2481.06,2493.00
2483.59,2437.00
2486.13,2498.00
2488.66,2515.00
2491.19,2464.00
2493.72,2449.00
2496.25,2424.00
2498.77,2427.00
2501.29,2376.00
2503.82,2507.00
2506.33,2492.00
2508.85,2443.00
2511.37,2412.00
2513.88,2374.00
2516.39,2378.00
2518.90,2397.00
2521.41,2416.00
2523.92,2371.00
2526.42,2391.00
2528.92,2475.00
2531.42,2342.00
2533.92,2319.00
2536.42,2333.00
2538.91,2344.00
2541.41,2423.00
2543.90,2363.00
2546.39,2359.00
2548.88,2346.00
2551.36,2393.00
2553.84,2327.00
2556.33,2315.00
2558.81,2376.00
2561.28,2346.00
2563.76,2324.00
2566.24,2381.00
2568.71,2251.00
2571.18,2311.00
2573.65,2271.00
2576.11,2309.00
2578.58,2293.00
2581.04,2287.00
2583.50,2332.00
2585.96,2362.00
2588.42,2294.00
2590.88,2330.00
2593.33,2256.00
2595.78,2317.00
2598.23,2312.00
2600.68,2305.00
2603.13,2263.00
2605.58,2293.00
2608.02,2291.00
2610.46,2336.00
2612.90,2304.00
2615.34,2311.00
2617.77,2298.00
2620.21,2248.00
2622.64,2262.00
2625.07,2283.00
2627.50,2198.00
2629.92,2293.00
2632.35,2243.00
2634.77,2237.00
2637.19,2292.00
2639.61,2190.00
2642.03,2249.00
2644.44,2294.00
2646.86,2228.00
2649.27,2186.00
2651.68,2235.00
2654.09,2241.00
2656.49,2167.00
2658.90,2224.00
2661.30,2253.00
2663.70,2202.00
2666.10,2207.00
2668.50,2219.00
2670.89,2125.00
2673.29,2170.00
2675.68,2180.00
2678.07,2142.00
2680.46,2152.00
2682.84,2155.00
2685.23,2188.00
2687.61,2144.00
2689.99,2163.00
2692.37,2135.00
2694.75,2172.00
2697.12,2196.00
2699.50,2125.00
2701.87,2125.00
2704.24,2057.00
2706.61,2123.00
2708.97,2062.00
2711.34,2098.00
2713.70,2104.00
2716.06,2106.00
2718.42,2156.00
2720.78,2075.00
2723.13,2096.00
2725.49,2161.00
2727.84,2135.00
2730.19,2110.00
2732.54,2038.00
2734.88,2102.00
2737.23,2019.00
2739.57,2088.00
2741.91,2073.00
2744.25,2090.00
2746.59,2104.00
2748.93,2098.00
2751.26,2051.00
2753.59,2044.00
2755.92,2043.00
2758.25,2086.00
2760.58,2115.00
2762.90,2079.00
2765.23,2108.00
2767.55,2056.00
2769.87,2066.00
2772.18,2134.00
2774.50,2115.00
2776.81,2127.00
2779.13,2127.00
2781.44,2081.00
2783.75,2085.00
2786.05,2125.00
2788.36,2071.00
2790.66,2057.00
2792.96,2123.00
2795.26,2163.00
2797.56,2062.00
2799.86,2129.00
2802.15,2157.00
2804.45,2130.00
2806.74,2193.00
2809.03,2193.00
2811.32,2203.00
2813.60,2153.00
2815.89,2182.00
2818.17,2171.00
2820.45,2123.00
2822.73,2193.00
2825.00,2179.00
2827.28,2201.00
2829.55,2163.00
2831.82,2193.00
2834.09,2150.00
2836.36,2272.00
2838.63,2185.00
2840.89,2163.00
2843.16,2283.00
2845.42,2222.00
2847.68,2209.00
2849.93,2208.00
2852.19,2212.00
2854.44,2214.00
2856.70,2254.00
2858.95,2220.00
2861.20,2245.00
2863.44,2250.00
2865.69,2249.00
2867.93,2205.00
2870.17,2237.00
2872.41,2184.00
2874.65,2234.00
2876.89,2205.00
2879.12,2171.00
2881.35,2136.00
2883.59,2160.00
2885.82,2182.00
2888.04,2184.00
2890.27,2150.00
2892.49,2147.00
2894.72,2133.00
2896.94,2138.00
2899.16,2131.00
2901.37,2093.00
2903.59,2058.00
2905.80,2111.00
2908.01,2100.00
2910.22,2090.00
2912.43,2103.00
2914.64,2129.00
2916.84,2135.00
2919.05,2100.00
2921.25,2117.00
2923.45,2080.00
2925.65,2093.00
2927.84,2161.00
2930.04,2100.00
2932.23,2031.00
2934.42,2123.00
2936.61,2087.00
2938.80,2102.00
2940.99,2116.00
2943.17,2113.00
2945.35,2167.00
2947.53,2106.00
2949.71,2096.00
2951.89,2058.00
2954.06,2094.00
2956.24,2108.00
2958.41,2087.00
2960.58,2077.00
2962.75,2104.00
2964.92,2129.00
2967.08,2125.00
2969.25,2104.00
2971.41,2079.00
2973.57,2161.00
2975.73,2117.00
2977.88,2136.00
2980.04,2148.00
2982.19,2134.00
2984.34,2167.00
2986.49,2237.00
2988.64,2234.00
2990.79,2218.00
2992.93,2233.00
2995.07,2241.00
2997.21,2276.00
2999.35,2252.00
3001.49,2268.00
3003.63,2298.00
3005.76,2364.00
3007.89,2330.00
3010.03,2333.00
3012.15,2384.00
3014.28,2438.00
3016.41,2448.00
3018.53,2486.00
3020.65,2443.00
3022.77,2471.00
3024.89,2448.00
3027.01,2467.00
3029.13,2549.00
3031.24,2540.00
3033.35,2593.00
3035.46,2608.00
3037.57,2622.00
3039.68,2660.00
3041.78,2667.00
3043.89,2698.00
3045.99,2686.00
3048.09,2684.00
3050.19,2731.00
3052.29,2758.00
3054.38,2759.00
3056.47,2829.00
3058.57,2783.00
3060.66,2807.00
3062.74,2878.00
3064.83,2882.00
3066.92,2920.00
3069.00,2877.00
3071.08,2915.00
3073.16,2916.00
3075.24,2953.00
3077.31,2940.00
3079.39,2979.00
3081.46,2958.00
3083.53,3004.00
3085.60,3068.00
3087.67,3057.00
3089.74,3050.00
3091.80,3147.00
3093.87,3146.00
3095.93,3162.00
3097.99,3168.00
3100.05,3192.00
3102.10,3268.00
3104.16,3240.00
3106.21,3293.00
3108.26,3355.00
3110.31,3404.00
3112.36,3394.00
3114.40,3387.00
3116.45,3403.00
3118.49,3396.00
3120.53,3447.00
3122.57,3493.00
3124.61,3437.00
3126.65,3491.00
3128.68,3487.00
3130.71,3431.00
3132.74,3436.00
3134.77,3462.00
3136.80,3508.00
3138.83,3480.00
3140.85,3431.00
3142.88,3416.00
3144.90,3347.00
3146.92,3390.00
3148.93,3367.00
3150.95,3314.00
3152.96,3230.00
3154.98,3327.00
3156.99,3283.00
3159.00,3267.00
3161.01,3196.00
3163.01,3200.00
3165.02,3107.00
3167.02,3141.00
3169.02,3051.00
3171.02,3092.00
3173.02,3103.00
3175.01,3052.00
3177.01,3013.00
3179.00,3024.00
3180.99,2938.00
3182.98,3010.00
3184.97,3015.00
3186.96,3037.00
3188.94,2941.00
3190.92,3002.00
3192.90,2992.00
3194.88,2941.00
3196.86,2960.00
3198.84,2880.00
3200.81,2920.00
3202.79,2894.00
