ENLIGHTEN Version,1.6.8
Measurement ID,20190528-175438-980727-WP-00421
Serial Number,WP-00421
Label,Ammonium Nitrate
Integration Time,500
Timestamp,2019-05-28 17:54:38.980727
Note,
Temperature,-99
CCD C0,845.722412109375
CCD C1,0.1515599936246872
CCD C2,-8.504200195602607e-06
CCD C3,-7.913800281755812e-09
CCD Offset,0
CCD Gain,1.9
Laser Wavelength,830.0
Laser Enable,True
Laser Power,100.0
Laser Temperature,-99
Pixel Count,1024

Wavenumber,Processed
223.98,1784.00
226.10,1988.00
228.22,2212.00
230.33,2375.00
232.45,2515.00
234.56,2595.00
236.68,2623.00
238.79,2633.00
240.90,2620.00
243.01,2552.00
245.12,2488.00
247.23,2430.00
249.34,2380.00
251.44,2291.00
253.55,2216.00
255.65,2126.00
257.76,2083.00
259.86,2031.00
261.96,1988.00
264.06,1923.00
266.16,1883.00
268.26,1836.00
270.36,1754.00
272.46,1728.00
274.55,1677.00
276.65,1665.00
278.74,1612.00
280.83,1545.00
282.92,1525.00
285.01,1433.00
287.10,1467.00
289.19,1422.00
291.28,1346.00
293.37,1331.00
295.45,1298.00
297.54,1246.00
299.62,1205.00
301.70,1215.00
303.78,1190.00
305.86,1128.00
307.94,1112.00
310.02,1073.00
312.10,1054.00
314.18,999.00
316.25,1037.00
318.33,1012.00
320.40,968.00
322.47,951.00
324.54,926.00
326.62,934.00
328.69,914.00
330.75,922.00
332.82,872.00
334.89,877.00
336.95,809.00
339.02,828.00
341.08,829.00
343.14,822.00
345.21,811.00
347.27,788.00
349.33,760.00
351.39,748.00
353.44,716.00
355.50,746.00
357.56,763.00
359.61,737.00
361.66,723.00
363.72,733.00
365.77,705.00
367.82,737.00
369.87,691.00
371.92,714.00
373.96,661.00
376.01,693.00
378.06,666.00
380.10,637.00
382.15,638.00
384.19,649.00
386.23,669.00
388.27,645.00
390.31,653.00
392.35,655.00
394.39,609.00
396.42,622.00
398.46,650.00
400.49,617.00
402.53,674.00
404.56,657.00
406.59,631.00
408.62,617.00
410.65,614.00
412.68,609.00
414.71,603.00
416.74,655.00
418.76,579.00
420.79,622.00
422.81,632.00
424.83,592.00
426.86,588.00
428.88,581.00
430.90,587.00
432.91,599.00
434.93,604.00
436.95,626.00
438.97,609.00
440.98,630.00
442.99,587.00
445.01,562.00
447.02,606.00
449.03,535.00
451.04,602.00
453.05,543.00
455.06,568.00
457.06,552.00
459.07,537.00
461.07,554.00
463.08,562.00
465.08,539.00
467.08,533.00
469.08,524.00
471.08,575.00
473.08,543.00
475.08,551.00
477.08,539.00
479.07,513.00
481.07,541.00
483.06,509.00
485.05,480.00
487.05,484.00
489.04,522.00
491.03,518.00
493.02,503.00
495.00,528.00
496.99,516.00
498.98,519.00
500.96,478.00
502.95,535.00
504.93,441.00
506.91,524.00
508.89,497.00
510.87,509.00
512.85,495.00
514.83,490.00
516.81,499.00
518.78,496.00
520.76,499.00
522.73,495.00
524.71,476.00
526.68,494.00
528.65,520.00
530.62,496.00
532.59,480.00
534.56,500.00
536.52,488.00
538.49,488.00
540.45,498.00
542.42,476.00
544.38,520.00
546.34,526.00
548.30,516.00
550.26,507.00
552.22,501.00
554.18,527.00
556.14,566.00
558.10,546.00
560.05,516.00
562.00,568.00
563.96,539.00
565.91,539.00
567.86,555.00
569.81,629.00
571.76,573.00
573.71,651.00
575.66,604.00
577.60,589.00
579.55,592.00
581.49,630.00
583.43,604.00
585.38,634.00
587.32,592.00
589.26,651.00
591.20,648.00
593.14,662.00
595.07,653.00
597.01,678.00
598.95,672.00
600.88,700.00
602.81,702.00
604.75,745.00
606.68,723.00
608.61,717.00
610.54,718.00
612.46,736.00
614.39,751.00
616.32,735.00
618.24,802.00
620.17,767.00
622.09,837.00
624.01,824.00
625.94,788.00
627.86,805.00
629.78,815.00
631.69,841.00
633.61,873.00
635.53,826.00
637.44,851.00
639.36,862.00
641.27,860.00
643.18,869.00
645.10,915.00
647.01,864.00
648.92,884.00
650.82,864.00
652.73,906.00
654.64,924.00
656.54,905.00
658.45,1001.00
660.35,916.00
662.25,958.00
664.16,896.00
666.06,932.00
667.96,1004.00
669.86,970.00
671.75,987.00
673.65,960.00
675.55,1107.00
677.44,1051.00
679.33,1041.00
681.23,1044.00
683.12,1099.00
685.01,1039.00
686.90,1044.00
688.79,1004.00
690.68,1065.00
692.56,1060.00
694.45,1115.00
696.33,1087.00
698.22,1182.00
700.10,1217.00
701.98,1318.00
703.86,1443.00
705.74,1671.00
707.62,2267.00
709.50,3520.00
711.38,6111.00
713.25,9160.00
715.13,11203.00
717.00,11702.00
718.87,10918.00
720.75,8682.00
722.62,5479.00
724.49,3065.00
726.36,2035.00
728.22,1524.00
730.09,1310.00
731.96,1175.00
733.82,1108.00
735.69,1043.00
737.55,1018.00
739.41,1002.00
741.27,964.00
743.13,998.00
744.99,991.00
746.85,999.00
748.71,919.00
750.56,978.00
752.42,944.00
754.27,930.00
756.12,934.00
757.98,931.00
759.83,929.00
761.68,935.00
763.53,812.00
765.38,913.00
767.22,920.00
769.07,862.00
770.91,946.00
772.76,950.00
774.60,907.00
776.44,904.00
778.29,921.00
780.13,959.00
781.97,957.00
783.80,940.00
785.64,887.00
787.48,921.00
789.31,953.00
791.15,955.00
792.98,964.00
794.81,936.00
796.64,983.00
798.48,932.00
800.30,1001.00
802.13,919.00
803.96,871.00
805.79,839.00
807.61,890.00
809.44,961.00
811.26,973.00
813.08,970.00
814.91,1003.00
816.73,853.00
818.55,858.00
820.36,873.00
822.18,868.00
824.00,961.00
825.81,890.00
827.63,850.00
829.44,898.00
831.26,874.00
833.07,915.00
834.88,797.00
836.69,866.00
838.50,862.00
840.30,922.00
842.11,831.00
843.92,907.00
845.72,885.00
847.53,799.00
849.33,831.00
851.13,893.00
852.93,826.00
854.73,868.00
856.53,847.00
858.33,868.00
860.13,864.00
861.92,894.00
863.72,814.00
865.51,810.00
867.30,818.00
869.10,822.00
870.89,857.00
872.68,849.00
874.47,866.00
876.26,872.00
878.04,803.00
879.83,767.00
881.61,851.00
883.40,841.00
885.18,793.00
886.96,810.00
888.75,885.00
890.53,839.00
892.30,887.00
894.08,807.00
895.86,833.00
897.64,837.00
899.41,877.00
901.19,854.00
902.96,881.00
904.73,784.00
906.50,838.00
908.27,806.00
910.04,885.00
911.81,915.00
913.58,805.00
915.35,873.00
917.11,767.00
918.88,824.00
920.64,782.00
922.40,879.00
924.17,782.00
925.93,837.00
927.69,801.00
929.44,849.00
931.20,877.00
932.96,856.00
934.71,879.00
936.47,846.00
938.22,858.00
939.98,898.00
941.73,879.00
943.48,867.00
945.23,874.00
946.98,834.00
948.73,911.00
950.47,898.00
952.22,929.00
953.96,915.00
955.71,816.00
957.45,858.00
959.19,832.00
960.93,843.00
962.67,898.00
964.41,875.00
966.15,904.00
967.89,809.00
969.63,863.00
971.36,919.00
973.09,865.00
974.83,900.00
976.56,896.00
978.29,913.00
980.02,924.00
981.75,928.00
983.48,898.00
985.21,862.00
986.93,927.00
988.66,845.00
990.38,915.00
992.11,991.00
993.83,981.00
995.55,983.00
997.27,1120.00
998.99,1049.00
1000.71,1029.00
1002.43,1029.00
1004.14,1099.00
1005.86,1059.00
1007.57,1118.00
1009.29,1151.00
1011.00,1234.00
1012.71,1226.00
1014.42,1267.00
1016.13,1297.00
1017.84,1393.00
1019.55,1528.00
1021.26,1760.00
1022.96,1944.00
1024.67,2242.00
1026.37,2527.00
1028.08,2921.00
1029.78,3389.00
1031.48,4290.00
1033.18,5655.00
1034.88,8150.00
1036.58,12917.00
1038.27,21494.00
1039.97,35214.00
1041.66,50396.00
1043.36,58791.00
1045.05,62185.00
1046.74,60870.00
1048.44,52612.00
1050.13,35738.00
1051.82,21925.00
1053.50,12954.00
1055.19,8101.00
1056.88,5570.00
1058.56,4093.00
1060.25,3210.00
1061.93,2584.00
1063.61,2264.00
1065.30,1919.00
1066.98,1771.00
1068.66,1636.00
1070.33,1462.00
1072.01,1430.00
1073.69,1322.00
1075.36,1219.00
1077.04,1196.00
1078.71,1155.00
1080.39,1139.00
1082.06,1099.00
1083.73,1056.00
1085.40,1004.00
1087.07,961.00
1088.74,991.00
1090.40,942.00
1092.07,906.00
1093.73,871.00
1095.40,885.00
1097.06,807.00
1098.72,838.00
1100.38,816.00
1102.04,788.00
1103.70,759.00
1105.36,794.00
1107.02,714.00
1108.67,771.00
1110.33,748.00
1111.98,722.00
1113.64,693.00
1115.29,674.00
1116.94,684.00
1118.59,712.00
1120.24,705.00
1121.89,664.00
1123.54,662.00
1125.18,628.00
1126.83,668.00
1128.47,656.00
1130.12,644.00
1131.76,600.00
1133.40,646.00
1135.04,662.00
1136.68,661.00
1138.32,684.00
1139.96,643.00
1141.60,625.00
1143.23,625.00
1144.87,632.00
1146.50,631.00
1148.13,567.00
1149.77,636.00
1151.40,683.00
1153.03,645.00
1154.66,617.00
1156.29,623.00
1157.91,603.00
1159.54,672.00
1161.16,602.00
1162.79,589.00
1164.41,552.00
1166.03,630.00
1167.66,568.00
1169.28,593.00
1170.89,573.00
1172.51,590.00
1174.13,583.00
1175.75,662.00
1177.36,609.00
1178.98,604.00
1180.59,585.00
1182.20,596.00
1183.82,600.00
1185.43,588.00
1187.04,579.00
1188.64,577.00
1190.25,579.00
1191.86,623.00
1193.47,640.00
1195.07,603.00
1196.67,583.00
1198.28,575.00
1199.88,558.00
1201.48,610.00
1203.08,564.00
1204.68,575.00
1206.28,553.00
1207.88,527.00
1209.47,519.00
1211.07,566.00
1212.66,539.00
1214.25,503.00
1215.85,526.00
1217.44,514.00
1219.03,528.00
1220.62,522.00
1222.21,524.00
1223.79,526.00
1225.38,522.00
1226.97,529.00
1228.55,465.00
1230.13,505.00
1231.72,492.00
1233.30,488.00
1234.88,452.00
1236.46,484.00
1238.04,476.00
1239.62,500.00
1241.19,494.00
1242.77,451.00
1244.34,482.00
1245.92,499.00
1247.49,545.00
1249.06,478.00
1250.63,498.00
1252.20,533.00
1253.77,489.00
1255.34,527.00
1256.91,526.00
1258.48,505.00
1260.04,541.00
1261.61,547.00
1263.17,545.00
1264.73,607.00
1266.29,652.00
1267.85,594.00
1269.41,645.00
1270.97,691.00
1272.53,706.00
1274.09,775.00
1275.64,854.00
1277.20,932.00
1278.75,1004.00
1280.30,1188.00
1281.86,1316.00
1283.41,1452.00
1284.96,1580.00
1286.51,1752.00
1288.05,1784.00
1289.60,1830.00
1291.15,1864.00
1292.69,1724.00
1294.24,1704.00
1295.78,1513.00
1297.32,1402.00
1298.86,1238.00
1300.40,1151.00
1301.94,1052.00
1303.48,945.00
1305.02,907.00
1306.56,869.00
1308.09,757.00
1309.63,704.00
1311.16,640.00
1312.69,648.00
1314.22,624.00
1315.75,606.00
1317.28,556.00
1318.81,503.00
1320.34,549.00
1321.87,544.00
1323.39,526.00
1324.92,488.00
1326.44,505.00
1327.97,499.00
1329.49,501.00
1331.01,484.00
1332.53,484.00
1334.05,476.00
1335.57,469.00
1337.08,507.00
1338.60,505.00
1340.12,501.00
1341.63,462.00
1343.14,452.00
1344.66,494.00
1346.17,484.00
1347.68,465.00
1349.19,449.00
1350.70,462.00
1352.20,461.00
1353.71,460.00
1355.22,470.00
1356.72,441.00
1358.23,472.00
1359.73,460.00
1361.23,455.00
1362.73,479.00
1364.23,496.00
1365.73,507.00
1367.23,508.00
1368.73,505.00
1370.22,469.00
1371.72,496.00
1373.21,495.00
1374.71,480.00
1376.20,535.00
1377.69,541.00
1379.18,557.00
1380.67,564.00
1382.16,586.00
1383.65,577.00
1385.13,625.00
1386.62,637.00
1388.10,648.00
1389.59,678.00
1391.07,707.00
1392.55,720.00
1394.03,807.00
1395.51,859.00
1396.99,871.00
1398.47,932.00
1399.95,970.00
1401.42,1057.00
1402.90,1135.00
1404.37,1255.00
1405.85,1338.00
1407.32,1394.00
1408.79,1487.00
1410.26,1585.00
1411.73,1707.00
1413.20,1775.00
1414.67,1788.00
1416.13,1841.00
1417.60,1889.00
1419.06,1866.00
1420.53,1884.00
1421.99,1881.00
1423.45,1795.00
1424.91,1720.00
1426.37,1665.00
1427.83,1636.00
1429.29,1538.00
1430.75,1444.00
1432.20,1365.00
1433.66,1327.00
1435.11,1234.00
1436.57,1202.00
1438.02,1120.00
1439.47,1084.00
1440.92,1074.00
1442.37,1011.00
1443.82,966.00
1445.26,1008.00
1446.71,941.00
1448.16,978.00
1449.60,974.00
1451.05,982.00
1452.49,993.00
1453.93,1004.00
1455.37,1077.00
1456.81,1070.00
1458.25,1111.00
1459.69,1160.00
1461.13,1137.00
1462.56,1165.00
1464.00,1129.00
1465.43,1122.00
1466.86,1075.00
1468.30,1048.00
1469.73,1006.00
1471.16,938.00
1472.59,905.00
1474.02,869.00
1475.44,825.00
1476.87,792.00
1478.30,752.00
1479.72,693.00
1481.14,653.00
1482.57,645.00
1483.99,640.00
1485.41,616.00
1486.83,571.00
1488.25,583.00
1489.67,556.00
1491.08,535.00
1492.50,546.00
1493.92,537.00
1495.33,499.00
1496.74,534.00
1498.16,520.00
1499.57,478.00
1500.98,496.00
1502.39,466.00
1503.80,472.00
1505.20,477.00
1506.61,469.00
1508.02,460.00
1509.42,458.00
1510.82,458.00
1512.23,437.00
1513.63,427.00
1515.03,424.00
1516.43,412.00
1517.83,391.00
1519.23,424.00
1520.63,402.00
1522.02,429.00
1523.42,402.00
1524.81,422.00
1526.20,400.00
1527.60,391.00
1528.99,413.00
1530.38,395.00
1531.77,398.00
1533.16,398.00
1534.55,384.00
1535.93,369.00
1537.32,376.00
1538.70,376.00
1540.09,393.00
1541.47,358.00
1542.85,363.00
1544.23,349.00
1545.61,349.00
1546.99,365.00
1548.37,343.00
1549.75,353.00
1551.12,353.00
1552.50,313.00
1553.87,366.00
1555.25,339.00
1556.62,329.00
1557.99,327.00
1559.36,340.00
1560.73,355.00
1562.10,346.00
1563.47,340.00
1564.84,356.00
1566.20,347.00
1567.57,338.00
1568.93,338.00
1570.29,342.00
1571.66,327.00
1573.02,345.00
1574.38,361.00
1575.74,328.00
1577.10,345.00
1578.45,357.00
1579.81,349.00
1581.16,357.00
1582.52,344.00
1583.87,344.00
1585.23,332.00
1586.58,353.00
1587.93,332.00
1589.28,349.00
1590.63,340.00
1591.98,340.00
1593.32,306.00
1594.67,327.00
1596.01,332.00
1597.36,331.00
1598.70,332.00
1600.04,302.00
1601.39,330.00
1602.73,338.00
1604.07,317.00
1605.40,345.00
1606.74,329.00
1608.08,310.00
1609.41,317.00
1610.75,330.00
1612.08,313.00
1613.42,323.00
1614.75,344.00
1616.08,314.00
1617.41,327.00
1618.74,313.00
1620.07,330.00
1621.39,323.00
1622.72,330.00
1624.04,323.00
1625.37,317.00
1626.69,321.00
1628.02,318.00
1629.34,321.00
1630.66,314.00
1631.98,310.00
1633.30,335.00
1634.61,321.00
1635.93,363.00
1637.25,344.00
1638.56,338.00
1639.88,332.00
1641.19,357.00
1642.50,359.00
1643.81,379.00
1645.12,383.00
1646.43,402.00
1647.74,448.00
1649.05,495.00
1650.35,565.00
1651.66,622.00
1652.96,714.00
1654.27,826.00
1655.57,885.00
1656.87,855.00
1658.17,892.00
1659.47,852.00
1660.77,769.00
1662.07,646.00
1663.37,615.00
1664.66,545.00
1665.96,509.00
1667.25,480.00
1668.55,446.00
1669.84,441.00
1671.13,452.00
1672.42,446.00
1673.71,450.00
1675.00,453.00
1676.29,448.00
1677.58,458.00
1678.86,450.00
1680.15,444.00
1681.43,426.00
1682.71,437.00
1684.00,425.00
1685.28,445.00
1686.56,420.00
1687.84,391.00
1689.11,415.00
1690.39,412.00
1691.67,406.00
1692.94,403.00
1694.22,393.00
1695.49,374.00
1696.76,397.00
1698.04,372.00
1699.31,368.00
1700.58,366.00
1701.85,370.00
1703.11,359.00
1704.38,368.00
1705.65,372.00
1706.91,349.00
1708.18,372.00
1709.44,338.00
1710.70,370.00
1711.96,378.00
1713.22,394.00
1714.48,351.00
1715.74,353.00
1717.00,355.00
1718.26,351.00
1719.51,340.00
1720.77,348.00
1722.02,326.00
1723.28,323.00
1724.53,313.00
1725.78,313.00
1727.03,324.00
1728.28,327.00
1729.53,306.00
1730.77,308.00
1732.02,306.00
1733.27,334.00
1734.51,300.00
1735.75,325.00
1737.00,302.00
1738.24,313.00
1739.48,329.00
1740.72,296.00
1741.96,282.00
1743.20,289.00
1744.43,290.00
1745.67,288.00
1746.91,285.00
1748.14,293.00
1749.37,306.00
1750.61,296.00
1751.84,278.00
1753.07,291.00
1754.30,300.00
1755.53,269.00
1756.75,288.00
1757.98,303.00
1759.21,300.00
1760.43,313.00
1761.66,281.00
1762.88,302.00
1764.10,298.00
1765.32,269.00
1766.54,285.00
1767.76,298.00
1768.98,306.00
1770.20,268.00
1771.41,298.00
1772.63,298.00
1773.84,300.00
1775.06,327.00
1776.27,293.00
1777.48,298.00
1778.69,299.00
1779.90,292.00
1781.11,317.00
1782.32,302.00
1783.53,293.00
1784.73,338.00
1785.94,330.00
1787.14,312.00
1788.35,308.00
1789.55,315.00
1790.75,311.00
1791.95,309.00
1793.15,306.00
1794.35,345.00
1795.55,317.00
1796.75,330.00
1797.94,294.00
1799.14,294.00
1800.33,294.00
1801.52,293.00
1802.72,290.00
1803.91,294.00
1805.10,294.00
1806.29,274.00
1807.48,279.00
1808.66,287.00
1809.85,268.00
1811.04,257.00
1812.22,233.00
1813.41,280.00
1814.59,252.00
1815.77,258.00
1816.95,256.00
1818.13,222.00
1819.31,218.00
1820.49,224.00
1821.67,196.00
1822.84,211.00
1824.02,231.00
1825.19,213.00
1826.37,216.00
1827.54,186.00
1828.71,220.00
1829.88,196.00
1831.05,199.00
1832.22,177.00
1833.39,188.00
1834.56,173.00
1835.72,184.00
1836.89,194.00
1838.05,178.00
1839.22,165.00
1840.38,186.00
1841.54,178.00
1842.70,161.00
1843.86,169.00
1845.02,167.00
1846.18,197.00
1847.33,173.00
1848.49,151.00
1849.64,142.00
1850.80,171.00
1851.95,183.00
1853.10,163.00
1854.25,162.00
1855.41,152.00
1856.55,173.00
1857.70,152.00
1858.85,161.00
1860.00,143.00
1861.14,169.00
1862.29,154.00
1863.43,164.00
1864.57,135.00
1865.72,142.00
1866.86,144.00
1868.00,146.00
1869.14,123.00
1870.28,144.00
1871.41,161.00
1872.55,129.00
1873.68,148.00
1874.82,147.00
1875.95,131.00
1877.09,139.00
1878.22,137.00
1879.35,110.00
