ENLIGHTEN Version,1.6.8
Measurement ID,20190305-164457-477000-unknown
Serial Number,unknown
Label,Dark
Integration Time,60
Timestamp,2019-03-05 16:44:57.477000
Note,
Temperature,-99
CCD C0,536.9515991210938
CCD C1,0.12007000297307968
CCD C2,-1.7113000012614066e-06
CCD C3,-8.254399830320835e-09
CCD Offset,0
CCD Gain,1.9
Laser Wavelength,532.0
Laser Enable,False
Laser Power,100.0
Laser Temperature,-99
Pixel Count,1024

Wavenumber,Processed
173.34,515.60
177.50,516.30
181.67,516.10
185.82,516.80
189.98,515.00
194.14,518.50
198.29,515.60
202.44,514.70
206.59,516.70
210.74,520.50
214.89,520.20
219.03,521.20
223.17,517.60
227.31,517.10
231.45,519.10
235.58,517.70
239.72,519.70
243.85,519.30
247.98,516.60
252.11,515.10
256.23,515.80
260.36,519.70
264.48,517.30
268.60,519.60
272.72,519.60
276.83,517.10
280.95,517.90
285.06,518.10
289.17,518.90
293.28,516.60
297.38,521.40
301.49,523.30
305.59,518.50
309.69,518.80
313.79,521.10
317.88,520.00
321.98,521.70
326.07,520.70
330.16,518.50
334.25,520.80
338.33,520.50
342.42,518.80
346.50,518.70
350.58,519.80
354.66,521.80
358.73,520.50
362.81,520.40
366.88,519.30
370.95,521.20
375.02,521.20
379.08,520.60
383.15,521.50
387.21,521.40
391.27,523.40
395.33,522.50
399.38,520.70
403.44,521.00
407.49,518.60
411.54,521.60
415.59,524.10
419.63,524.00
423.68,524.60
427.72,523.20
431.76,521.20
435.80,520.10
439.84,520.00
443.87,524.40
447.90,523.00
451.93,526.20
455.96,524.40
459.99,524.80
464.01,523.70
468.03,523.60
472.05,523.60
476.07,523.90
480.09,524.20
484.10,525.90
488.11,525.50
492.12,524.70
496.13,525.60
500.14,526.30
504.14,527.80
508.14,527.80
512.14,526.80
516.14,523.20
520.14,526.60
524.13,525.30
528.12,527.30
532.11,530.80
536.10,527.90
540.09,526.70
544.07,525.20
548.06,532.20
552.04,532.20
556.01,527.10
559.99,527.40
563.96,526.40
567.94,527.40
571.91,528.90
575.87,528.30
579.84,528.90
583.80,529.20
587.77,528.90
591.73,528.50
595.69,527.90
599.64,529.00
603.60,527.60
607.55,529.30
611.50,526.60
615.45,529.60
619.39,528.60
623.34,526.90
627.28,525.30
631.22,529.90
635.16,529.10
639.09,531.00
643.03,535.20
646.96,529.00
650.89,533.00
654.82,530.70
658.74,525.80
662.67,530.80
666.59,532.90
670.51,532.00
674.43,534.90
678.34,533.50
682.26,527.50
686.17,529.30
690.08,530.40
693.99,534.70
697.89,537.70
701.80,533.10
705.70,527.80
709.60,527.80
713.50,532.60
717.39,535.50
721.29,537.10
725.18,532.90
729.07,534.00
732.96,532.80
736.84,534.80
740.72,537.10
744.61,537.10
748.49,536.90
752.36,534.30
756.24,533.90
760.11,533.20
763.99,535.60
767.86,537.60
771.72,535.60
775.59,534.30
779.45,534.00
783.31,533.70
787.17,535.00
791.03,537.30
794.89,538.50
798.74,536.90
802.59,536.40
806.44,537.00
810.29,535.90
814.14,532.60
817.98,534.40
821.82,537.70
825.66,537.70
829.50,538.40
833.33,535.40
837.17,537.50
841.00,536.60
844.83,536.60
848.66,539.40
852.48,536.00
856.31,540.80
860.13,538.20
863.95,540.50
867.76,539.60
871.58,538.00
875.39,542.20
879.20,541.40
883.01,541.60
886.82,540.50
890.63,538.20
894.43,541.00
898.23,542.20
902.03,537.60
905.83,541.10
909.62,541.10
913.42,541.80
917.21,540.20
921.00,540.50
924.79,540.20
928.57,541.60
932.35,546.30
936.13,545.10
939.91,542.70
943.69,545.10
947.47,542.20
951.24,545.50
955.01,545.30
958.78,548.40
962.55,549.20
966.31,543.10
970.08,548.40
973.84,543.00
977.60,544.00
981.35,545.30
985.11,542.80
988.86,544.80
992.61,545.80
996.36,546.30
1000.11,549.70
1003.85,546.80
1007.60,542.90
1011.34,545.20
1015.08,546.20
1018.81,548.70
1022.55,544.20
1026.28,545.90
1030.01,547.50
1033.74,547.40
1037.47,549.70
1041.19,547.00
1044.92,549.40
1048.64,546.40
1052.36,548.30
1056.07,551.70
1059.79,545.10
1063.50,548.90
1067.21,549.40
1070.92,550.30
1074.63,551.30
1078.33,550.60
1082.03,550.30
1085.74,550.90
1089.43,550.20
1093.13,549.50
1096.83,552.50
1100.52,551.40
1104.21,550.00
1107.90,551.60
1111.58,550.00
1115.27,550.80
1118.95,554.20
1122.63,554.40
1126.31,552.90
1129.99,550.60
1133.66,551.50
1137.33,555.30
1141.00,555.30
1144.67,555.40
1148.34,555.10
1152.00,553.90
1155.67,553.20
1159.33,552.90
1162.99,553.50
1166.64,553.70
1170.30,554.40
1173.95,554.40
1177.60,557.40
1181.25,555.10
1184.89,553.80
1188.54,552.80
1192.18,555.30
1195.82,553.50
1199.46,554.30
1203.10,555.20
1206.73,557.70
1210.36,556.00
1213.99,553.10
1217.62,554.90
1221.25,556.10
1224.87,555.10
1228.49,559.10
1232.11,558.70
1235.73,561.30
1239.35,558.70
1242.96,558.80
1246.57,561.20
1250.19,557.30
1253.79,559.80
1257.40,560.60
1261.00,559.70
1264.61,561.20
1268.21,556.20
1271.80,559.10
1275.40,561.60
1278.99,559.60
1282.59,564.10
1286.18,561.40
1289.76,562.30
1293.35,566.80
1296.93,564.10
1300.52,563.80
1304.10,564.30
1307.67,564.10
1311.25,563.70
1314.82,562.30
1318.40,567.90
1321.97,563.70
1325.53,561.80
1329.10,560.60
1332.66,565.10
1336.23,566.10
1339.79,569.30
1343.34,564.80
1346.90,566.10
1350.45,568.80
1354.00,564.00
1357.55,567.30
1361.10,568.40
1364.65,565.30
1368.19,568.90
1371.73,566.90
1375.27,566.70
1378.81,566.70
1382.35,570.50
1385.88,570.70
1389.41,567.70
1392.94,568.60
1396.47,573.70
1400.00,569.60
1403.52,568.30
1407.04,568.40
1410.56,569.40
1414.08,570.60
1417.59,574.50
1421.11,573.60
1424.62,575.90
1428.13,572.10
1431.64,570.60
1435.14,574.40
1438.64,572.20
1442.15,578.00
1445.65,575.60
1449.14,575.20
1452.64,574.10
1456.13,574.80
1459.62,574.20
1463.11,579.30
1466.60,580.90
1470.09,579.10
1473.57,575.90
1477.05,573.60
1480.53,577.40
1484.01,577.60
1487.48,580.20
1490.96,577.80
1494.43,579.50
1497.90,578.00
1501.37,578.20
1504.83,580.50
1508.29,578.90
1511.76,580.90
1515.22,579.80
1518.67,579.90
1522.13,580.20
1525.58,577.70
1529.03,581.30
1532.48,580.10
1535.93,584.40
1539.37,584.70
1542.82,583.10
1546.26,584.00
1549.70,581.20
1553.14,586.70
1556.57,586.10
1560.00,586.60
1563.44,584.80
1566.87,585.20
1570.29,584.30
1573.72,590.60
1577.14,586.10
1580.56,590.80
1583.98,590.20
1587.40,588.70
1590.81,588.30
1594.23,586.60
1597.64,588.50
1601.05,593.80
1604.46,590.70
1607.86,589.40
1611.26,591.10
1614.67,587.60
1618.06,591.90
1621.46,591.20
1624.86,592.50
1628.25,594.60
1631.64,590.10
1635.03,591.10
1638.42,589.40
1641.80,595.60
1645.19,595.90
1648.57,596.40
1651.95,596.70
1655.32,594.80
1658.70,598.60
1662.07,597.50
1665.44,598.20
1668.81,594.90
1672.18,593.60
1675.54,597.10
1678.91,597.90
1682.27,599.40
1685.63,596.70
1688.99,599.60
1692.34,596.00
1695.69,599.50
1699.05,599.70
1702.39,599.80
1705.74,600.00
1709.09,604.40
1712.43,600.70
1715.77,601.70
1719.11,599.70
1722.45,603.00
1725.78,601.50
1729.12,604.20
1732.45,609.60
1735.78,606.40
1739.10,604.40
1742.43,605.50
1745.75,604.10
1749.07,601.70
1752.39,604.00
1755.71,606.50
1759.02,603.80
1762.34,605.10
1765.65,606.20
1768.96,605.40
1772.26,601.70
1775.57,606.30
1778.87,606.70
1782.17,608.60
1785.47,606.90
1788.77,606.40
1792.07,608.80
1795.36,605.60
1798.65,609.00
1801.94,609.00
1805.23,611.90
1808.51,607.60
1811.80,610.30
1815.08,610.30
1818.36,611.50
1821.63,614.10
1824.91,616.10
1828.18,609.60
1831.45,613.90
1834.72,612.50
1837.99,615.60
1841.25,613.30
1844.52,615.90
1847.78,613.90
1851.04,615.60
1854.30,613.40
1857.55,617.10
1860.80,615.90
1864.06,617.60
1867.30,618.10
1870.55,617.60
1873.80,616.80
1877.04,616.50
1880.28,619.00
1883.52,618.30
1886.76,617.10
1889.99,617.00
1893.23,618.40
1896.46,617.10
1899.69,620.30
1902.92,617.30
1906.14,615.30
1909.36,620.90
1912.59,622.50
1915.81,619.80
1919.02,617.60
1922.24,619.50
1925.45,621.90
1928.66,627.20
1931.87,624.20
1935.08,620.20
1938.29,618.50
1941.49,620.00
1944.69,623.70
1947.89,625.20
1951.09,626.80
1954.28,626.20
1957.48,627.50
1960.67,626.90
1963.86,624.90
1967.05,628.00
1970.23,626.10
1973.41,627.60
1976.60,630.20
1979.78,630.20
1982.95,628.70
1986.13,629.10
1989.30,627.20
1992.47,626.60
1995.64,627.40
1998.81,627.60
2001.98,634.00
2005.14,630.00
2008.30,628.10
2011.46,627.90
2014.62,625.00
2017.78,629.90
2020.93,629.00
2024.08,632.60
2027.23,628.90
2030.38,625.20
2033.53,629.40
2036.67,629.50
2039.81,630.40
2042.95,632.70
2046.09,629.10
2049.23,629.50
2052.36,628.40
2055.49,632.70
2058.62,630.80
2061.75,632.00
2064.88,630.00
2068.00,631.10
2071.12,629.90
2074.24,634.20
2077.36,632.20
2080.48,631.10
2083.59,630.40
2086.70,635.30
2089.81,632.00
2092.92,632.20
2096.03,632.80
2099.13,633.50
2102.23,634.60
2105.33,634.60
2108.43,635.40
2111.53,629.50
2114.62,632.80
2117.72,630.10
2120.81,634.90
2123.89,637.50
2126.98,632.30
2130.07,631.70
2133.15,630.40
2136.23,631.20
2139.31,634.40
2142.38,630.90
2145.46,634.90
2148.53,631.90
2151.60,629.90
2154.67,632.30
2157.74,630.90
2160.80,633.40
2163.86,634.30
2166.92,633.40
2169.98,633.90
2173.04,630.30
2176.09,630.50
2179.15,630.30
2182.20,632.20
2185.25,632.50
2188.29,634.80
2191.34,634.50
2194.38,632.50
2197.42,631.20
2200.46,635.40
2203.50,631.30
2206.53,634.00
2209.57,633.60
2212.60,633.50
2215.63,632.40
2218.65,631.60
2221.68,630.10
2224.70,629.70
2227.72,629.00
2230.74,633.20
2233.76,632.30
2236.78,630.90
2239.79,629.20
2242.80,631.00
2245.81,631.30
2248.82,632.00
2251.82,625.30
2254.83,630.40
2257.83,630.90
2260.83,632.70
2263.82,631.50
2266.82,628.30
2269.81,632.30
2272.81,628.80
2275.79,626.20
2278.78,628.80
2281.77,628.10
2284.75,628.60
2287.73,627.70
2290.71,630.40
2293.69,622.70
2296.67,624.50
2299.64,627.00
2302.61,627.00
2305.58,624.90
2308.55,624.50
2311.52,620.80
2314.48,627.30
2317.44,624.90
2320.40,626.50
2323.36,622.90
2326.32,620.60
2329.27,619.90
2332.22,625.50
2335.17,620.10
2338.12,619.70
2341.07,621.00
2344.01,621.60
2346.96,619.00
2349.90,618.00
2352.84,621.60
2355.77,616.40
2358.71,616.90
2361.64,619.40
2364.57,615.40
2367.50,614.50
2370.43,612.90
2373.35,613.60
2376.27,612.70
2379.19,615.70
2382.11,616.00
2385.03,615.50
2387.94,614.50
2390.86,610.00
2393.77,615.70
2396.68,615.60
2399.58,613.70
2402.49,609.20
2405.39,607.40
2408.29,610.90
2411.19,611.20
2414.09,614.70
2416.99,611.20
2419.88,607.20
2422.77,612.20
2425.66,611.70
2428.55,607.80
2431.43,609.80
2434.32,607.90
2437.20,605.00
2440.08,607.50
2442.96,605.10
2445.83,606.20
2448.71,606.10
2451.58,604.50
2454.45,603.00
2457.32,603.10
2460.18,603.10
2463.05,602.50
2465.91,602.90
2468.77,603.80
2471.63,603.50
2474.48,601.40
2477.34,598.00
2480.19,599.20
2483.04,603.20
2485.89,604.70
2488.73,599.80
2491.58,599.90
2494.42,599.40
2497.26,592.60
2500.10,600.30
2502.94,595.50
2505.77,596.00
2508.60,595.20
2511.44,596.30
2514.26,594.10
2517.09,594.20
2519.92,594.60
2522.74,592.80
2525.56,591.40
2528.38,594.20
2531.20,592.40
2534.01,591.20
2536.82,587.20
2539.64,582.90
2542.44,590.50
2545.25,589.60
2548.06,591.20
2550.86,586.80
2553.66,585.30
2556.46,585.40
2559.26,583.30
2562.06,585.60
2564.85,582.20
2567.64,584.20
2570.43,582.50
2573.22,579.80
2576.00,580.30
2578.79,582.80
2581.57,580.10
2584.35,584.20
2587.13,579.20
2589.91,576.30
2592.68,575.40
2595.45,578.00
2598.22,577.50
2600.99,575.40
2603.76,575.90
2606.52,576.20
2609.28,575.70
2612.04,575.40
2614.80,571.00
2617.56,575.20
2620.31,576.70
2623.07,571.20
2625.82,571.20
2628.57,571.60
2631.31,570.40
2634.06,571.10
2636.80,570.00
2639.54,571.60
2642.28,570.90
2645.02,565.30
2647.76,571.60
2650.49,568.20
2653.22,563.60
2655.95,567.80
2658.68,567.50
2661.40,569.50
2664.13,566.60
2666.85,566.20
2669.57,567.80
2672.29,565.60
2675.00,566.40
2677.72,564.70
2680.43,563.80
2683.14,563.80
2685.85,564.50
2688.55,560.30
2691.26,561.70
2693.96,561.70
2696.66,564.00
2699.36,563.50
2702.05,562.70
2704.75,560.50
2707.44,561.80
2710.13,561.40
2712.82,564.80
2715.51,559.50
2718.19,557.50
2720.88,554.20
2723.56,556.00
2726.24,557.70
2728.91,556.70
2731.59,557.30
2734.26,556.10
2736.93,554.00
2739.60,556.70
2742.27,558.00
2744.94,557.30
2747.60,554.50
2750.26,554.00
2752.92,556.20
2755.58,554.40
2758.23,551.90
2760.89,555.10
2763.54,557.80
2766.19,552.10
2768.84,552.40
2771.49,552.00
2774.13,554.40
2776.77,549.50
2779.41,551.10
2782.05,549.40
2784.69,550.90
2787.32,549.20
2789.95,550.00
2792.59,550.00
2795.21,550.90
2797.84,548.70
2800.47,550.90
2803.09,550.00
2805.71,550.50
2808.33,553.50
2810.95,549.30
2813.56,548.60
2816.18,549.40
2818.79,547.30
2821.40,546.10
2824.00,549.40
2826.61,551.50
2829.21,549.20
2831.81,547.80
2834.41,547.30
2837.01,549.60
2839.61,547.70
2842.20,547.40
2844.79,545.60
2847.39,542.70
2849.97,546.20
2852.56,545.60
2855.14,544.70
2857.73,545.50
2860.31,545.20
2862.89,543.90
2865.46,543.50
2868.04,542.80
2870.61,544.60
2873.18,543.60
2875.75,545.20
2878.32,542.40
2880.88,542.40
2883.45,542.80
2886.01,541.70
2888.57,539.70
2891.12,541.60
2893.68,539.40
2896.23,545.20
2898.79,541.90
2901.34,544.40
2903.88,542.70
2906.43,539.60
2908.97,539.20
2911.52,541.30
2914.06,542.20
2916.59,540.30
2919.13,540.30
2921.66,537.80
2924.20,538.80
2926.73,540.10
2929.26,542.30
2931.78,541.70
2934.31,539.10
2936.83,536.10
2939.35,536.20
2941.87,539.80
2944.39,541.10
2946.90,539.90
2949.42,537.30
2951.93,541.10
2954.44,538.30
2956.95,537.10
2959.45,540.80
2961.95,539.90
2964.46,536.80
2966.96,536.50
2969.45,539.40
2971.95,536.80
2974.44,532.90
2976.94,537.40
2979.43,535.10
2981.92,535.60
2984.40,538.20
2986.89,536.20
2989.37,534.10
2991.85,534.20
2994.33,529.20
2996.81,532.00
2999.28,535.30
3001.75,536.40
3004.22,534.00
3006.69,535.70
3009.16,536.30
3011.63,539.20
3014.09,536.20
3016.55,535.60
3019.01,538.60
3021.47,535.00
3023.93,535.80
3026.38,533.50
3028.83,534.30
3031.28,536.70
3033.73,535.80
3036.18,535.70
3038.62,533.00
3041.06,535.10
3043.50,533.00
3045.94,535.70
3048.38,532.80
3050.81,531.60
3053.25,533.00
3055.68,532.30
3058.11,532.20
3060.53,531.80
3062.96,533.80
3065.38,530.40
3067.80,530.20
3070.22,528.30
3072.64,532.00
3075.06,528.90
3077.47,527.70
3079.88,528.10
3082.29,528.00
3084.70,531.40
3087.11,527.50
3089.51,528.10
3091.91,527.40
3094.31,528.40
3096.71,527.10
3099.11,526.30
3101.50,526.90
3103.90,528.60
3106.29,523.60
3108.68,523.50
3111.06,525.90
3113.45,524.10
3115.83,525.00
3118.21,522.70
3120.59,524.20
3122.97,525.80
3125.35,524.20
3127.72,526.20
3130.09,522.50
3132.46,521.60
3134.83,524.00
3137.20,525.30
3139.56,526.90
3141.92,527.10
3144.28,525.90
3146.64,525.10
3149.00,528.80
3151.35,529.50
3153.71,524.50
3156.06,521.80
3158.41,526.10
3160.75,522.80
3163.10,520.90
3165.44,518.80
3167.78,521.50
3170.12,522.70
3172.46,521.30
3174.80,519.90
3177.13,520.50
3179.46,519.80
3181.79,523.20
3184.12,517.80
3186.45,521.10
3188.77,518.60
3191.09,519.30
3193.41,520.60
3195.73,518.60
3198.05,519.80
3200.36,523.50
3202.68,523.10
3204.99,518.60
3207.30,521.40
3209.60,521.10
3211.91,523.40
3214.21,524.60
3216.51,527.60
3218.81,523.90
3221.11,522.00
3223.41,521.20
3225.70,522.40
3227.99,524.00
3230.28,524.90
3232.57,524.60
3234.86,524.10
3237.14,525.60
3239.43,525.90
3241.71,522.80
3243.98,523.70
3246.26,526.60
3248.54,527.00
3250.81,521.00
3253.08,518.80
3255.35,523.30
3257.62,521.10
3259.88,518.20
3262.15,518.50
3264.41,517.10
3266.67,518.60
3268.93,517.10
3271.18,513.10
3273.44,516.60
3275.69,513.90
3277.94,515.00
3280.19,515.90
3282.43,513.50
3284.68,513.60
3286.92,509.40
3289.16,510.50
3291.40,510.10
3293.64,511.20
3295.87,511.80
3298.11,509.10
3300.34,505.10
3302.57,503.60
3304.80,504.30
3307.02,505.50
3309.25,509.00
3311.47,506.80
3313.69,505.90
3315.91,502.30
3318.12,501.50
3320.34,502.10
3322.55,502.10
3324.76,504.50
3326.97,502.20
3329.18,500.50
3331.38,500.10
3333.58,498.60
3335.78,498.20
3337.98,496.50
3340.18,498.80
3342.38,496.30
3344.57,496.30
3346.76,495.20
3348.95,497.80
3351.14,498.00
3353.33,494.20
3355.51,494.80
3357.69,493.80
3359.87,494.70
3362.05,497.80
3364.23,496.60
3366.40,493.60
3368.58,494.30
3370.75,486.50
3372.92,488.30
3375.08,486.40
3377.25,494.20
3379.41,494.80
3381.57,493.20
3383.73,490.60
3385.89,483.50
3388.05,483.10
3390.20,489.40
3392.35,499.00
