ENLIGHTEN Version,1.6.8
Measurement ID,20190528-122949-408113-WP-00193
Serial Number,WP-00193
Label,Glucose 100g per L
Integration Time,1000
Timestamp,2019-05-28 12:29:49.408113
Note,
Temperature,-99
CCD C0,536.9577026367188
CCD C1,0.11947000026702881
CCD C2,-1.3838999620929826e-05
CCD C3,-3.2027001051204707e-09
CCD Offset,0
CCD Gain,1.9
Laser Wavelength,532.0
Laser Enable,False
Laser Power,100.0
Laser Temperature,-99
Pixel Count,1024

Wavenumber,Processed
173.55,8.00
177.69,23.00
181.83,7.00
185.97,12.00
190.10,9.00
194.23,19.00
198.36,14.00
202.49,28.00
206.61,13.00
210.73,13.00
214.85,7.00
218.96,23.00
223.07,6.00
227.18,19.00
231.29,26.00
235.39,38.00
239.49,15.00
243.59,19.00
247.68,32.00
251.78,78.00
255.87,38.00
259.95,17.00
264.04,43.00
268.12,70.00
272.19,97.00
276.27,106.00
280.34,110.00
284.41,136.00
288.48,211.00
292.54,222.00
296.61,314.00
300.67,390.00
304.72,569.00
308.78,692.00
312.83,915.00
316.87,1146.00
320.92,1438.00
324.96,1745.00
329.00,2107.00
333.04,2505.00
337.07,2867.00
341.10,3229.00
345.13,3584.00
349.16,3704.00
353.18,3881.00
357.20,4160.00
361.22,4201.00
365.24,4239.00
369.25,4385.00
373.26,4385.00
377.27,4385.00
381.27,4531.00
385.27,4672.00
389.27,4698.00
393.27,4784.00
397.26,4910.00
401.25,4986.00
405.24,5133.00
409.22,5294.00
413.21,5463.00
417.19,5716.00
421.16,5819.00
425.14,5716.00
429.11,5732.00
433.08,5726.00
437.05,5718.00
441.01,5686.00
444.97,5659.00
448.93,5674.00
452.89,5707.00
456.84,5602.00
460.79,5502.00
464.74,5445.00
468.68,5322.00
472.62,5385.00
476.56,5371.00
480.50,5325.00
484.44,5384.00
488.37,5477.00
492.30,5648.00
496.22,5893.00
500.15,5995.00
504.07,6242.00
507.99,6375.00
511.90,6453.00
515.81,6555.00
519.72,6559.00
523.63,6478.00
527.54,6580.00
531.44,6265.00
535.34,5972.00
539.24,5895.00
543.13,5914.00
547.02,5837.00
550.91,5879.00
554.80,5728.00
558.68,5746.00
562.56,5831.00
566.44,5756.00
570.32,5735.00
574.19,5654.00
578.06,5664.00
581.93,5636.00
585.80,5597.00
589.66,5686.00
593.52,5581.00
597.38,5618.00
601.23,5620.00
605.09,5663.00
608.94,5468.00
612.78,5517.00
616.63,5481.00
620.47,5526.00
624.31,5399.00
628.15,5440.00
631.98,5427.00
635.81,5553.00
639.64,5672.00
643.47,5609.00
647.29,5551.00
651.11,5565.00
654.93,5549.00
658.75,5623.00
662.56,5526.00
666.37,5609.00
670.18,5512.00
673.99,5561.00
677.79,5553.00
681.59,5598.00
685.39,5598.00
689.18,5555.00
692.97,5611.00
696.77,5576.00
700.55,5664.00
704.34,5697.00
708.12,5636.00
711.90,5612.00
715.68,5587.00
719.45,5596.00
723.22,5619.00
726.99,5544.00
730.76,5460.00
734.53,5545.00
738.29,5623.00
742.05,5526.00
745.80,5461.00
749.56,5505.00
753.31,5594.00
757.06,5555.00
760.80,5519.00
764.55,5580.00
768.29,5578.00
772.03,5597.00
775.77,5610.00
779.50,5591.00
783.23,5692.00
786.96,5529.00
790.69,5513.00
794.41,5407.00
798.13,5441.00
801.85,5479.00
805.57,5634.00
809.28,5541.00
812.99,5507.00
816.70,5401.00
820.40,5589.00
824.11,5482.00
827.81,5469.00
831.51,5614.00
835.20,5595.00
838.90,5552.00
842.59,5760.00
846.28,5659.00
849.96,5806.00
853.65,5806.00
857.33,5818.00
861.00,5725.00
864.68,5762.00
868.35,5706.00
872.02,5614.00
875.69,5479.00
879.36,5406.00
883.02,5465.00
886.68,5479.00
890.34,5581.00
894.00,5612.00
897.65,5815.00
901.30,5943.00
904.95,5777.00
908.59,5733.00
912.24,5829.00
915.88,5692.00
919.52,5635.00
923.15,5640.00
926.79,5490.00
930.42,5275.00
934.05,5123.00
937.67,5021.00
941.30,5020.00
944.92,4894.00
948.54,4870.00
952.15,4826.00
955.77,4891.00
959.38,4908.00
962.99,4740.00
966.59,4820.00
970.20,4775.00
973.80,4817.00
977.40,4868.00
980.99,4864.00
984.59,4794.00
988.18,4900.00
991.77,4969.00
995.35,4960.00
998.94,4889.00
1002.52,4967.00
1006.10,5169.00
1009.67,5312.00
1013.25,5338.00
1016.82,5562.00
1020.39,5501.00
1023.96,5560.00
1027.52,5561.00
1031.08,5587.00
1034.64,5572.00
1038.20,5614.00
1041.76,5612.00
1045.31,5707.00
1048.86,5728.00
1052.41,5842.00
1055.95,5981.00
1059.49,6169.00
1063.03,6121.00
1066.57,6132.00
1070.11,6110.00
1073.64,6008.00
1077.17,5729.00
1080.70,5581.00
1084.22,5346.00
1087.75,5293.00
1091.27,5224.00
1094.79,5178.00
1098.30,5322.00
1101.82,5454.00
1105.33,5545.00
1108.84,5818.00
1112.34,6055.00
1115.85,6202.00
1119.35,6436.00
1122.85,6677.00
1126.35,6652.00
1129.84,6645.00
1133.33,6530.00
1136.82,6128.00
1140.31,5745.00
1143.79,5405.00
1147.28,5216.00
1150.76,5062.00
1154.23,4885.00
1157.71,4794.00
1161.18,4632.00
1164.65,4643.00
1168.12,4486.00
1171.59,4355.00
1175.05,4261.00
1178.51,4218.00
1181.97,4143.00
1185.43,4149.00
1188.88,3976.00
1192.33,4046.00
1195.78,4052.00
1199.23,4136.00
1202.67,4086.00
1206.11,4124.00
1209.55,4073.00
1212.99,4109.00
1216.43,4062.00
1219.86,4056.00
1223.29,3970.00
1226.72,4076.00
1230.14,4029.00
1233.57,4034.00
1236.99,4107.00
1240.40,4010.00
1243.82,4033.00
1247.23,4155.00
1250.65,4102.00
1254.06,4118.00
1257.46,4236.00
1260.87,4175.00
1264.27,4221.00
1267.67,4195.00
1271.07,4130.00
1274.46,4052.00
1277.85,3942.00
1281.24,4008.00
1284.63,3949.00
1288.02,3848.00
1291.40,3896.00
1294.78,3793.00
1298.16,3875.00
1301.54,3900.00
1304.91,3808.00
1308.28,3848.00
1311.65,3963.00
1315.02,3991.00
1318.38,3995.00
1321.75,4096.00
1325.11,4180.00
1328.46,4267.00
1331.82,4271.00
1335.17,4212.00
1338.52,4192.00
1341.87,4208.00
1345.22,4235.00
1348.56,4231.00
1351.90,4284.00
1355.24,4307.00
1358.58,4405.00
1361.92,4568.00
1365.25,4603.00
1368.58,4497.00
1371.91,4518.00
1375.23,4497.00
1378.55,4345.00
1381.88,4217.00
1385.19,4237.00
1388.51,4066.00
1391.82,3862.00
1395.14,3898.00
1398.45,3745.00
1401.75,3761.00
1405.06,3589.00
1408.36,3461.00
1411.66,3581.00
1414.96,3578.00
1418.25,3347.00
1421.55,3380.00
1424.84,3364.00
1428.13,3356.00
1431.41,3272.00
1434.70,3247.00
1437.98,3357.00
1441.26,3249.00
1444.54,3211.00
1447.81,3338.00
1451.09,3394.00
1454.36,3595.00
1457.63,3652.00
1460.89,3717.00
1464.16,3721.00
1467.42,3675.00
1470.68,3495.00
1473.93,3483.00
1477.19,3184.00
1480.44,3095.00
1483.69,2825.00
1486.94,2779.00
1490.19,2721.00
1493.43,2737.00
1496.67,2639.00
1499.91,2736.00
1503.15,2667.00
1506.38,2587.00
1509.61,2622.00
1512.84,2627.00
1516.07,2633.00
1519.30,2610.00
1522.52,2602.00
1525.74,2625.00
1528.96,2551.00
1532.18,2614.00
1535.39,2543.00
1538.60,2524.00
1541.81,2549.00
1545.02,2646.00
1548.23,2616.00
1551.43,2599.00
1554.63,2529.00
1557.83,2568.00
1561.03,2616.00
1564.22,2519.00
1567.41,2660.00
1570.60,2584.00
1573.79,2737.00
1576.98,2791.00
1580.16,2732.00
1583.34,2711.00
1586.52,2741.00
1589.70,2772.00
1592.87,2779.00
1596.04,2815.00
1599.21,2820.00
1602.38,2903.00
1605.55,2958.00
1608.71,3013.00
1611.87,3120.00
1615.03,3055.00
1618.19,3080.00
1621.34,3162.00
1624.50,3166.00
1627.65,3236.00
1630.79,3270.00
1633.94,3270.00
1637.08,3230.00
1640.22,3255.00
1643.36,3203.00
1646.50,3217.00
1649.64,3190.00
1652.77,3160.00
1655.90,3015.00
1659.03,3092.00
1662.15,2993.00
1665.28,2894.00
1668.40,2888.00
1671.52,2893.00
1674.64,2839.00
1677.75,2770.00
1680.86,2660.00
1683.97,2534.00
1687.08,2648.00
1690.19,2507.00
1693.29,2384.00
1696.40,2340.00
1699.50,2310.00
1702.59,2294.00
1705.69,2097.00
1708.78,2132.00
1711.87,2014.00
1714.96,2066.00
1718.05,2011.00
1721.13,1969.00
1724.22,1902.00
1727.30,1872.00
1730.38,1933.00
1733.45,1796.00
1736.53,1750.00
1739.60,1750.00
1742.67,1679.00
1745.73,1744.00
1748.80,1695.00
1751.86,1711.00
1754.92,1630.00
1757.98,1665.00
1761.04,1607.00
1764.09,1571.00
1767.15,1624.00
1770.20,1531.00
1773.25,1564.00
1776.29,1518.00
1779.34,1432.00
1782.38,1463.00
1785.42,1439.00
1788.45,1503.00
1791.49,1433.00
1794.52,1463.00
1797.55,1438.00
1800.58,1381.00
1803.61,1387.00
1806.63,1284.00
1809.66,1362.00
1812.68,1355.00
1815.70,1351.00
1818.71,1349.00
1821.73,1356.00
1824.74,1343.00
1827.75,1364.00
1830.75,1250.00
1833.76,1198.00
1836.76,1297.00
1839.77,1402.00
1842.76,1255.00
1845.76,1208.00
1848.76,1184.00
1851.75,1301.00
1854.74,1278.00
1857.73,1258.00
1860.72,1193.00
1863.70,1227.00
1866.68,1233.00
1869.66,1151.00
1872.64,1139.00
1875.62,1187.00
1878.59,1217.00
1881.56,1170.00
1884.53,1176.00
1887.50,1162.00
1890.46,1128.00
1893.43,1124.00
1896.39,1211.00
1899.35,1101.00
1902.31,1090.00
1905.26,1132.00
1908.21,1096.00
1911.16,1153.00
1914.11,1225.00
1917.06,1051.00
1920.00,1146.00
1922.95,1117.00
1925.89,1103.00
1928.82,1052.00
1931.76,1080.00
1934.70,1111.00
1937.63,1086.00
1940.56,1124.00
1943.48,1075.00
1946.41,1037.00
1949.33,1181.00
1952.26,1063.00
1955.18,1125.00
1958.09,1109.00
1961.01,1117.00
1963.92,1111.00
1966.83,1092.00
1969.74,1117.00
1972.65,1122.00
1975.55,1132.00
1978.46,1111.00
1981.36,1149.00
1984.26,1141.00
1987.15,1052.00
1990.05,1166.00
1992.94,1081.00
1995.83,1071.00
1998.72,1189.00
2001.61,1089.00
2004.49,1073.00
2007.37,1124.00
2010.25,1286.00
2013.13,1079.00
2016.01,1170.00
2018.88,1128.00
2021.75,1149.00
2024.63,1078.00
2027.49,1120.00
2030.36,1132.00
2033.22,1195.00
2036.08,1143.00
2038.94,1196.00
2041.80,1130.00
2044.66,1299.00
2047.51,1161.00
2050.36,1174.00
2053.21,1204.00
2056.06,1170.00
2058.91,1055.00
2061.75,1068.00
2064.59,1221.00
2067.43,1101.00
2070.27,1242.00
2073.10,1082.00
2075.94,1082.00
2078.77,1187.00
2081.60,1202.00
2084.43,1185.00
2087.25,1064.00
2090.07,1240.00
2092.89,1124.00
2095.71,1143.00
2098.53,1187.00
2101.35,1043.00
2104.16,1042.00
2106.97,1094.00
2109.78,1036.00
2112.59,1107.00
2115.39,1071.00
2118.19,1106.00
2121.00,1111.00
2123.79,1185.00
2126.59,1080.00
2129.39,1024.00
2132.18,1041.00
2134.97,1066.00
2137.76,1054.00
2140.55,995.00
2143.33,1012.00
2146.11,1048.00
2148.90,1101.00
2151.67,967.00
2154.45,1044.00
2157.23,1033.00
2160.00,1058.00
2162.77,1029.00
2165.54,983.00
2168.31,976.00
2171.07,966.00
2173.83,983.00
2176.59,947.00
2179.35,1017.00
2182.11,998.00
2184.87,994.00
2187.62,945.00
2190.37,866.00
2193.12,886.00
2195.87,932.00
2198.61,926.00
2201.35,867.00
2204.09,943.00
2206.83,865.00
2209.57,830.00
2212.31,807.00
2215.04,738.00
2217.77,837.00
2220.50,790.00
2223.23,879.00
2225.95,824.00
2228.68,904.00
2231.40,788.00
2234.12,782.00
2236.83,767.00
2239.55,799.00
2242.26,835.00
2244.97,839.00
2247.68,814.00
2250.39,721.00
2253.10,690.00
2255.80,735.00
2258.50,634.00
2261.20,763.00
2263.90,771.00
2266.59,643.00
2269.29,706.00
2271.98,742.00
2274.67,681.00
2277.36,641.00
2280.04,685.00
2282.73,734.00
2285.41,581.00
2288.09,552.00
2290.77,561.00
2293.44,569.00
2296.12,648.00
2298.79,590.00
2301.46,532.00
2304.13,586.00
2306.80,601.00
2309.46,540.00
2312.12,497.00
2314.78,511.00
2317.44,576.00
2320.10,464.00
2322.75,591.00
2325.41,446.00
2328.06,354.00
2330.71,393.00
2333.35,474.00
2336.00,322.00
2338.64,432.00
2341.28,395.00
2343.92,337.00
2346.56,533.00
2349.19,367.00
2351.83,430.00
2354.46,474.00
2357.09,407.00
2359.72,367.00
2362.34,474.00
2364.97,570.00
2367.59,466.00
2370.21,420.00
2372.83,341.00
2375.44,327.00
2378.06,362.00
2380.67,394.00
2383.28,386.00
2385.89,348.00
2388.49,373.00
2391.10,453.00
2393.70,361.00
2396.30,346.00
2398.90,347.00
2401.50,348.00
2404.09,318.00
2406.68,352.00
2409.28,308.00
2411.87,360.00
2414.45,330.00
2417.04,350.00
2419.62,272.00
2422.20,318.00
2424.78,305.00
2427.36,306.00
2429.94,302.00
2432.51,269.00
2435.08,331.00
2437.65,293.00
2440.22,246.00
2442.79,245.00
2445.35,194.00
2447.92,381.00
2450.48,253.00
2453.03,310.00
2455.59,291.00
2458.15,285.00
2460.70,227.00
2463.25,255.00
2465.80,219.00
2468.35,238.00
2470.89,322.00
2473.44,219.00
2475.98,264.00
2478.52,246.00
2481.06,210.00
2483.59,182.00
2486.13,188.00
2488.66,217.00
2491.19,221.00
2493.72,324.00
2496.25,234.00
2498.77,123.00
2501.29,226.00
2503.82,179.00
2506.33,237.00
2508.85,160.00
2511.37,207.00
2513.88,205.00
2516.39,242.00
2518.90,197.00
2521.41,212.00
2523.92,278.00
2526.42,216.00
2528.92,143.00
2531.42,146.00
2533.92,219.00
2536.42,219.00
2538.91,112.00
2541.41,227.00
2543.90,217.00
2546.39,108.00
2548.88,140.00
2551.36,156.00
2553.84,112.00
2556.33,177.00
2558.81,186.00
2561.28,175.00
2563.76,31.00
2566.24,213.00
2568.71,202.00
2571.18,112.00
2573.65,130.00
2576.11,143.00
2578.58,139.00
2581.04,97.00
2583.50,144.00
2585.96,158.00
2588.42,148.00
2590.88,118.00
2593.33,147.00
2595.78,101.00
2598.23,154.00
2600.68,234.00
2603.13,166.00
2605.58,113.00
2608.02,162.00
2610.46,144.00
2612.90,147.00
2615.34,171.00
2617.77,208.00
2620.21,173.00
2622.64,160.00
2625.07,196.00
2627.50,192.00
2629.92,175.00
2632.35,249.00
2634.77,274.00
2637.19,186.00
2639.61,236.00
2642.03,223.00
2644.44,293.00
2646.86,253.00
2649.27,223.00
2651.68,220.00
2654.09,237.00
2656.49,205.00
2658.90,300.00
2661.30,230.00
2663.70,233.00
2666.10,255.00
2668.50,300.00
2670.89,325.00
2673.29,272.00
2675.68,331.00
2678.07,320.00
2680.46,223.00
2682.84,323.00
2685.23,346.00
2687.61,359.00
2689.99,325.00
2692.37,391.00
2694.75,478.00
2697.12,432.00
2699.50,517.00
2701.87,466.00
2704.24,525.00
2706.61,510.00
2708.97,544.00
2711.34,580.00
2713.70,660.00
2716.06,594.00
2718.42,647.00
2720.78,604.00
2723.13,565.00
2725.49,662.00
2727.84,729.00
2730.19,590.00
2732.54,612.00
2734.88,681.00
2737.23,694.00
2739.57,704.00
2741.91,694.00
2744.25,704.00
2746.59,675.00
2748.93,636.00
2751.26,776.00
2753.59,616.00
2755.92,662.00
2758.25,675.00
2760.58,677.00
2762.90,694.00
2765.23,766.00
2767.55,672.00
2769.87,752.00
2772.18,769.00
2774.50,846.00
2776.81,772.00
2779.13,698.00
2781.44,752.00
2783.75,767.00
2786.05,778.00
2788.36,845.00
2790.66,808.00
2792.96,835.00
2795.26,853.00
2797.56,845.00
2799.86,879.00
2802.15,883.00
2804.45,957.00
2806.74,920.00
2809.03,972.00
2811.32,1033.00
2813.60,1109.00
2815.89,1121.00
2818.17,1188.00
2820.45,1214.00
2822.73,1338.00
2825.00,1373.00
2827.28,1419.00
2829.55,1555.00
2831.82,1589.00
2834.09,1657.00
2836.36,1851.00
2838.63,1853.00
2840.89,1992.00
2843.16,2100.00
2845.42,2250.00
2847.68,2488.00
2849.93,2661.00
2852.19,2753.00
2854.44,3006.00
2856.70,3152.00
2858.95,3472.00
2861.20,3643.00
2863.44,3894.00
2865.69,4121.00
2867.93,4378.00
2870.17,4659.00
2872.41,4882.00
2874.65,5232.00
2876.89,5457.00
2879.12,5819.00
2881.35,6130.00
2883.59,6439.00
2885.82,6789.00
2888.04,6931.00
2890.27,7279.00
2892.49,7570.00
2894.72,7530.00
2896.94,7767.00
2899.16,7754.00
2901.37,7810.00
2903.59,7760.00
2905.80,7562.00
2908.01,7459.00
2910.22,7254.00
2912.43,6915.00
2914.64,6751.00
2916.84,6635.00
2919.05,6411.00
2921.25,6349.00
2923.45,6089.00
2925.65,6007.00
2927.84,5930.00
2930.04,5908.00
2932.23,5875.00
2934.42,5863.00
2936.61,6002.00
2938.80,6012.00
2940.99,6208.00
2943.17,6181.00
2945.35,6341.00
2947.53,6399.00
2949.71,6259.00
2951.89,6291.00
2954.06,6213.00
2956.24,6085.00
2958.41,6065.00
2960.58,5859.00
2962.75,5741.00
2964.92,5627.00
2967.08,5467.00
2969.25,5262.00
2971.41,5142.00
2973.57,5107.00
2975.73,5055.00
2977.88,4944.00
2980.04,4912.00
2982.19,4802.00
2984.34,4721.00
2986.49,4709.00
2988.64,4506.00
2990.79,4482.00
2992.93,4453.00
2995.07,4389.00
2997.21,4413.00
2999.35,4314.00
3001.49,4238.00
3003.63,4345.00
3005.76,4314.00
3007.89,4235.00
3010.03,4328.00
3012.15,4320.00
3014.28,4556.00
3016.41,4579.00
3018.53,4554.00
3020.65,4624.00
3022.77,4787.00
3024.89,4786.00
3027.01,4974.00
3029.13,4911.00
3031.24,5092.00
3033.35,5197.00
3035.46,5393.00
3037.57,5477.00
3039.68,5633.00
3041.78,5780.00
3043.89,5883.00
3045.99,6088.00
3048.09,6131.00
3050.19,6362.00
3052.29,6449.00
3054.38,6592.00
3056.47,6717.00
3058.57,6913.00
3060.66,7181.00
3062.74,7288.00
3064.83,7505.00
3066.92,7661.00
3069.00,7818.00
3071.08,8019.00
3073.16,8083.00
3075.24,8407.00
3077.31,8465.00
3079.39,8675.00
3081.46,9036.00
3083.53,9038.00
3085.60,9297.00
3087.67,9670.00
3089.74,9766.00
3091.80,10123.00
3093.87,10219.00
3095.93,10427.00
3097.99,10527.00
3100.05,10868.00
3102.10,11001.00
3104.16,11386.00
3106.21,11578.00
3108.26,11761.00
3110.31,12234.00
3112.36,12373.00
3114.40,12561.00
3116.45,12862.00
3118.49,13088.00
3120.53,13410.00
3122.57,13609.00
3124.61,14045.00
3126.65,14066.00
3128.68,14395.00
3130.71,14840.00
3132.74,14943.00
3134.77,15312.00
3136.80,15609.00
3138.83,15854.00
3140.85,16079.00
3142.88,16455.00
3144.90,16535.00
3146.92,16813.00
3148.93,17075.00
3150.95,17275.00
3152.96,17623.00
3154.98,17749.00
3156.99,18241.00
3159.00,18548.00
3161.01,18783.00
3163.01,19098.00
3165.02,19258.00
3167.02,19476.00
3169.02,19731.00
3171.02,19881.00
3173.02,20163.00
3175.01,20317.00
3177.01,20568.00
3179.00,20924.00
3180.99,21105.00
3182.98,21263.00
3184.97,21541.00
3186.96,21790.00
3188.94,21782.00
3190.92,22052.00
3192.90,22187.00
3194.88,22222.00
3196.86,22514.00
3198.84,22640.00
3200.81,22751.00
3202.79,23010.00
