ENLIGHTEN Version,1.6.8
Measurement ID,20190528-085203-481108-WP-00414
Serial Number,WP-00414
Label,MEK
Integration Time,1000
Timestamp,2019-05-28 08:52:03.481108
Note,
Temperature,-99
CCD C0,802.3497924804688
CCD C1,0.14086101949214935
CCD C2,-5.3832700359635055e-06
CCD C3,-8.582899724274284e-09
CCD Offset,0
CCD Gain,1.9
Laser Wavelength,785.0
Laser Enable,True
Laser Power,100.0
Laser Temperature,-99
Pixel Count,1024

Wavenumber,Processed
275.46,8.00
277.65,9.00
279.84,12.00
282.02,15.00
284.21,4.00
286.39,21.00
288.57,18.00
290.76,17.00
292.94,11.00
295.12,26.00
297.30,8.00
299.47,15.00
301.65,25.00
303.83,32.00
306.00,38.00
308.18,32.00
310.35,48.00
312.52,51.00
314.70,47.00
316.87,58.00
319.04,73.00
321.20,97.00
323.37,131.00
325.54,160.00
327.71,169.00
329.87,200.00
332.03,258.00
334.20,288.00
336.36,334.00
338.52,391.00
340.68,420.00
342.84,486.00
345.00,530.00
347.16,562.00
349.31,545.00
351.47,594.00
353.62,576.00
355.78,634.00
357.93,624.00
360.08,623.00
362.23,625.00
364.38,636.00
366.53,746.00
368.68,700.00
370.83,680.00
372.97,723.00
375.12,729.00
377.26,788.00
379.41,752.00
381.55,809.00
383.69,856.00
385.83,881.00
387.97,993.00
390.11,1077.00
392.25,1154.00
394.39,1288.00
396.52,1492.00
398.66,1798.00
400.79,2147.00
402.92,2665.00
405.05,3357.00
407.19,4053.00
409.32,4460.00
411.45,4289.00
413.57,3706.00
415.70,2956.00
417.83,2310.00
419.95,1925.00
422.08,1558.00
424.20,1436.00
426.32,1248.00
428.44,1124.00
430.57,1053.00
432.69,962.00
434.80,920.00
436.92,862.00
439.04,847.00
441.15,820.00
443.27,786.00
445.38,778.00
447.50,769.00
449.61,777.00
451.72,784.00
453.83,807.00
455.94,784.00
458.05,786.00
460.16,824.00
462.26,849.00
464.37,860.00
466.47,867.00
468.57,917.00
470.68,970.00
472.78,951.00
474.88,1031.00
476.98,991.00
479.08,1012.00
481.18,953.00
483.27,928.00
485.37,948.00
487.46,874.00
489.56,868.00
491.65,900.00
493.74,769.00
495.83,837.00
497.92,817.00
500.01,883.00
502.10,883.00
504.19,917.00
506.28,928.00
508.36,1023.00
510.45,1092.00
512.53,1166.00
514.61,1321.00
516.69,1433.00
518.77,1557.00
520.85,1568.00
522.93,1488.00
525.01,1327.00
527.09,1194.00
529.16,1086.00
531.24,965.00
533.31,987.00
535.38,907.00
537.46,921.00
539.53,881.00
541.60,879.00
543.67,860.00
545.74,898.00
547.80,890.00
549.87,903.00
551.93,951.00
554.00,941.00
556.06,1001.00
558.12,1018.00
560.19,1080.00
562.25,1120.00
564.31,1188.00
566.36,1295.00
568.42,1362.00
570.48,1490.00
572.53,1634.00
574.59,1798.00
576.64,2010.00
578.70,2244.00
580.75,2650.00
582.80,3066.00
584.85,3710.00
586.90,4372.00
588.95,5101.00
590.99,5777.00
593.04,6037.00
595.08,5767.00
597.13,5010.00
599.17,4069.00
601.21,3285.00
603.25,2724.00
605.29,2166.00
607.33,1857.00
609.37,1534.00
611.41,1384.00
613.45,1187.00
615.48,1115.00
617.52,989.00
619.55,931.00
621.58,856.00
623.61,835.00
625.65,743.00
627.67,735.00
629.70,717.00
631.73,710.00
633.76,666.00
635.78,680.00
637.81,615.00
639.83,631.00
641.86,605.00
643.88,585.00
645.90,582.00
647.92,579.00
649.94,589.00
651.96,573.00
653.97,576.00
655.99,537.00
658.01,547.00
660.02,539.00
662.03,537.00
664.05,539.00
666.06,555.00
668.07,589.00
670.08,554.00
672.08,581.00
674.09,556.00
676.10,541.00
678.10,537.00
680.11,558.00
682.11,549.00
684.12,549.00
686.12,615.00
688.12,598.00
690.12,607.00
692.12,621.00
694.11,642.00
696.11,602.00
698.11,638.00
700.10,596.00
702.10,651.00
704.09,655.00
706.08,727.00
708.07,714.00
710.06,754.00
712.05,782.00
714.04,788.00
716.03,807.00
718.01,857.00
720.00,898.00
721.98,953.00
723.97,1014.00
725.95,1107.00
727.93,1176.00
729.91,1306.00
731.89,1443.00
733.87,1613.00
735.85,1847.00
737.82,2127.00
739.80,2441.00
741.77,2846.00
743.75,3322.00
745.72,4080.00
747.69,4970.00
749.66,6047.00
751.63,7301.00
753.60,8786.00
755.57,10303.00
757.53,12566.00
759.50,15712.00
761.46,19927.00
763.43,24141.00
765.39,25035.00
767.35,21956.00
769.31,16080.00
771.27,10840.00
773.23,7514.00
775.19,5371.00
777.15,4169.00
779.11,3350.00
781.06,2779.00
783.01,2384.00
784.97,2159.00
786.92,1908.00
788.87,1686.00
790.82,1556.00
792.77,1476.00
794.72,1355.00
796.67,1266.00
798.61,1199.00
800.56,1148.00
802.50,1091.00
804.45,999.00
806.39,950.00
808.33,920.00
810.27,923.00
812.21,901.00
814.15,839.00
816.09,812.00
818.02,793.00
819.96,795.00
821.89,791.00
823.83,749.00
825.76,742.00
827.69,750.00
829.62,693.00
831.55,708.00
833.48,662.00
835.41,658.00
837.34,615.00
839.26,640.00
841.19,628.00
843.11,625.00
845.03,590.00
846.96,636.00
848.88,611.00
850.80,598.00
852.72,579.00
854.63,615.00
856.55,567.00
858.47,589.00
860.38,565.00
862.30,534.00
864.21,568.00
866.12,600.00
868.03,572.00
869.94,554.00
871.85,573.00
873.76,570.00
875.67,585.00
877.58,577.00
879.48,548.00
881.39,588.00
883.29,587.00
885.19,545.00
887.09,602.00
888.99,586.00
890.89,600.00
892.79,623.00
894.69,569.00
896.59,636.00
898.48,615.00
900.38,636.00
902.27,636.00
904.16,655.00
906.06,685.00
907.95,709.00
909.84,729.00
911.72,773.00
913.61,748.00
915.50,792.00
917.38,837.00
919.27,869.00
921.15,941.00
923.04,997.00
924.92,1079.00
926.80,1138.00
928.68,1194.00
930.56,1334.00
932.44,1397.00
934.31,1501.00
936.19,1574.00
938.07,1657.00
939.94,1743.00
941.81,1804.00
943.68,1870.00
945.56,1906.00
947.43,2034.00
949.30,2071.00
951.16,2055.00
953.03,2027.00
954.90,1959.00
956.76,1901.00
958.63,1754.00
960.49,1686.00
962.35,1624.00
964.21,1597.00
966.07,1450.00
967.93,1448.00
969.79,1437.00
971.65,1456.00
973.51,1460.00
975.36,1501.00
977.22,1564.00
979.07,1646.00
980.92,1748.00
982.77,1860.00
984.62,1995.00
986.47,2143.00
988.32,2377.00
990.17,2555.00
992.02,2766.00
993.86,2901.00
995.71,3051.00
997.55,3081.00
999.39,3053.00
1001.24,2793.00
1003.08,2535.00
1004.92,2358.00
1006.76,2134.00
1008.59,1896.00
1010.43,1703.00
1012.27,1561.00
1014.10,1489.00
1015.93,1315.00
1017.77,1268.00
1019.60,1219.00
1021.43,1144.00
1023.26,1118.00
1025.09,1086.00
1026.92,1055.00
1028.74,985.00
1030.57,997.00
1032.40,936.00
1034.22,951.00
1036.04,900.00
1037.87,888.00
1039.69,877.00
1041.51,888.00
1043.33,905.00
1045.14,921.00
1046.96,835.00
1048.78,915.00
1050.59,845.00
1052.41,910.00
1054.22,925.00
1056.03,898.00
1057.84,966.00
1059.65,955.00
1061.46,925.00
1063.27,1008.00
1065.08,1081.00
1066.89,1166.00
1068.69,1188.00
1070.50,1278.00
1072.30,1394.00
1074.10,1618.00
1075.90,1832.00
1077.70,2213.00
1079.50,2595.00
1081.30,3186.00
1083.10,4091.00
1084.90,5474.00
1086.69,7357.00
1088.49,8960.00
1090.28,9219.00
1092.07,7861.00
1093.86,5716.00
1095.65,4127.00
1097.44,3138.00
1099.23,2477.00
1101.02,2105.00
1102.81,1841.00
1104.59,1635.00
1106.38,1520.00
1108.16,1375.00
1109.94,1270.00
1111.73,1175.00
1113.51,1060.00
1115.29,1059.00
1117.07,990.00
1118.84,942.00
1120.62,910.00
1122.40,858.00
1124.17,803.00
1125.95,792.00
1127.72,759.00
1129.49,760.00
1131.26,742.00
1133.03,750.00
1134.80,759.00
1136.57,725.00
1138.34,733.00
1140.10,722.00
1141.87,728.00
1143.63,731.00
1145.39,731.00
1147.16,765.00
1148.92,774.00
1150.68,811.00
1152.44,792.00
1154.19,854.00
1155.95,925.00
1157.71,946.00
1159.46,1002.00
1161.22,1053.00
1162.97,1213.00
1164.72,1315.00
1166.47,1420.00
1168.22,1568.00
1169.97,1694.00
1171.72,1780.00
1173.47,1766.00
1175.22,1840.00
1176.96,1680.00
1178.71,1651.00
1180.45,1544.00
1182.19,1390.00
1183.93,1251.00
1185.67,1249.00
1187.41,1080.00
1189.15,1046.00
1190.89,962.00
1192.63,944.00
1194.36,877.00
1196.10,908.00
1197.83,913.00
1199.56,902.00
1201.29,913.00
1203.02,910.00
1204.75,888.00
1206.48,944.00
1208.21,945.00
1209.94,936.00
1211.66,873.00
1213.39,867.00
1215.11,879.00
1216.83,851.00
1218.55,826.00
1220.28,797.00
1221.99,778.00
1223.71,824.00
1225.43,795.00
1227.15,775.00
1228.86,736.00
1230.58,830.00
1232.29,808.00
1234.01,772.00
1235.72,820.00
1237.43,885.00
1239.14,822.00
1240.85,953.00
1242.55,999.00
1244.26,1069.00
1245.97,1164.00
1247.67,1199.00
1249.38,1422.00
1251.08,1460.00
1252.78,1631.00
1254.48,1792.00
1256.18,1918.00
1257.88,2005.00
1259.58,1940.00
1261.28,1887.00
1262.97,1805.00
1264.67,1608.00
1266.36,1528.00
1268.05,1382.00
1269.75,1327.00
1271.44,1187.00
1273.13,1184.00
1274.82,1050.00
1276.50,1023.00
1278.19,984.00
1279.88,894.00
1281.56,915.00
1283.25,881.00
1284.93,854.00
1286.61,869.00
1288.29,796.00
1289.97,756.00
1291.65,779.00
1293.33,776.00
1295.01,792.00
1296.69,788.00
1298.36,738.00
1300.04,829.00
1301.71,790.00
1303.38,822.00
1305.05,801.00
1306.72,816.00
1308.39,824.00
1310.06,915.00
1311.73,869.00
1313.39,908.00
1315.06,836.00
1316.72,820.00
1318.39,904.00
1320.05,881.00
1321.71,831.00
1323.37,850.00
1325.03,959.00
1326.69,963.00
1328.35,958.00
1330.00,940.00
1331.66,1071.00
1333.31,1152.00
1334.97,1133.00
1336.62,1139.00
1338.27,1329.00
1339.92,1356.00
1341.57,1458.00
1343.22,1576.00
1344.87,1549.00
1346.51,1634.00
1348.16,1616.00
1349.81,1553.00
1351.45,1534.00
1353.09,1485.00
1354.73,1414.00
1356.37,1397.00
1358.01,1322.00
1359.65,1359.00
1361.29,1340.00
1362.93,1245.00
1364.56,1240.00
1366.20,1254.00
1367.83,1296.00
1369.46,1270.00
1371.10,1325.00
1372.73,1382.00
1374.36,1392.00
1375.99,1386.00
1377.61,1589.00
1379.24,1596.00
1380.87,1619.00
1382.49,1779.00
1384.11,1704.00
1385.74,1707.00
1387.36,1676.00
1388.98,1612.00
1390.60,1703.00
1392.22,1732.00
1393.84,1789.00
1395.45,1887.00
1397.07,1889.00
1398.69,2056.00
1400.30,2128.00
1401.91,2292.00
1403.52,2465.00
1405.14,2714.00
1406.75,2867.00
1408.35,3174.00
1409.96,3449.00
1411.57,3713.00
1413.18,3941.00
1414.78,4365.00
1416.39,4592.00
1417.99,4762.00
1419.59,4940.00
1421.19,5067.00
1422.79,5031.00
1424.39,4849.00
1425.99,4744.00
1427.59,4684.00
1429.18,4505.00
1430.78,4271.00
1432.37,4268.00
1433.97,4146.00
1435.56,4077.00
1437.15,4038.00
1438.74,3873.00
1440.33,3887.00
1441.92,3772.00
1443.50,3732.00
1445.09,3810.00
1446.68,3781.00
1448.26,3784.00
1449.84,3874.00
1451.43,4047.00
1453.01,4125.00
1454.59,4209.00
1456.17,4214.00
1457.75,4262.00
1459.32,4178.00
1460.90,4067.00
1462.47,3947.00
1464.05,3827.00
1465.62,3714.00
1467.19,3493.00
1468.77,3178.00
1470.34,2910.00
1471.91,2767.00
1473.47,2531.00
1475.04,2445.00
1476.61,2217.00
1478.17,2033.00
1479.74,1908.00
1481.30,1919.00
1482.87,1872.00
1484.43,1759.00
1485.99,1682.00
1487.55,1579.00
1489.11,1534.00
1490.66,1454.00
1492.22,1504.00
1493.78,1391.00
1495.33,1390.00
1496.88,1318.00
1498.44,1344.00
1499.99,1270.00
1501.54,1280.00
1503.09,1236.00
1504.64,1220.00
1506.18,1167.00
1507.73,1207.00
1509.28,1192.00
1510.82,1099.00
1512.37,1111.00
1513.91,1080.00
1515.45,1037.00
1516.99,1008.00
1518.53,1006.00
1520.07,964.00
1521.61,991.00
1523.14,1014.00
1524.68,1012.00
1526.22,835.00
1527.75,865.00
1529.28,811.00
1530.81,926.00
1532.34,853.00
1533.87,767.00
1535.40,763.00
1536.93,791.00
1538.46,755.00
1539.98,780.00
1541.51,755.00
1543.03,740.00
1544.56,770.00
1546.08,759.00
1547.60,749.00
1549.12,683.00
1550.64,698.00
1552.16,765.00
1553.67,661.00
1555.19,700.00
1556.70,664.00
1558.22,651.00
1559.73,680.00
1561.24,646.00
1562.76,634.00
1564.27,659.00
1565.77,650.00
1567.28,636.00
1568.79,664.00
1570.30,547.00
1571.80,596.00
1573.31,513.00
1574.81,584.00
1576.31,541.00
1577.81,656.00
1579.31,596.00
1580.81,587.00
1582.31,516.00
1583.81,520.00
1585.30,448.00
1586.80,501.00
1588.29,537.00
1589.79,479.00
1591.28,569.00
1592.77,446.00
1594.26,480.00
1595.75,487.00
1597.24,447.00
1598.72,460.00
1600.21,474.00
1601.70,456.00
1603.18,385.00
1604.66,419.00
1606.15,442.00
1607.63,462.00
1609.11,415.00
1610.59,397.00
1612.07,397.00
1613.54,421.00
1615.02,410.00
1616.50,305.00
1617.97,402.00
1619.44,357.00
1620.92,380.00
1622.39,414.00
1623.86,382.00
1625.33,368.00
1626.80,412.00
1628.26,423.00
1629.73,444.00
1631.20,431.00
1632.66,423.00
1634.12,427.00
1635.59,365.00
1637.05,442.00
1638.51,406.00
1639.97,415.00
1641.43,416.00
1642.89,433.00
1644.34,409.00
1645.80,428.00
1647.25,314.00
1648.71,372.00
1650.16,367.00
1651.61,390.00
1653.06,332.00
1654.51,387.00
1655.96,420.00
1657.41,378.00
1658.85,420.00
1660.30,372.00
1661.74,420.00
1663.19,416.00
1664.63,413.00
1666.07,480.00
1667.51,424.00
1668.95,439.00
1670.39,529.00
1671.83,457.00
1673.27,433.00
1674.70,444.00
1676.14,502.00
1677.57,520.00
1679.00,472.00
1680.44,486.00
1681.87,567.00
1683.30,562.00
1684.73,565.00
1686.15,541.00
1687.58,538.00
1689.01,554.00
1690.43,578.00
1691.86,623.00
1693.28,664.00
1694.70,795.00
1696.12,821.00
1697.54,906.00
1698.96,1031.00
1700.38,1151.00
1701.80,1293.00
1703.21,1496.00
1704.63,1828.00
1706.04,2204.00
1707.45,2565.00
1708.87,2945.00
1710.28,3283.00
1711.69,3632.00
1713.10,3828.00
1714.50,3988.00
1715.91,3941.00
1717.32,3866.00
1718.72,3622.00
1720.13,3473.00
1721.53,3285.00
1722.93,3042.00
1724.33,2743.00
1725.73,2438.00
1727.13,2174.00
1728.53,1992.00
1729.93,1692.00
1731.33,1519.00
1732.72,1354.00
1734.11,1194.00
1735.51,1065.00
1736.90,965.00
1738.29,921.00
1739.68,830.00
1741.07,714.00
1742.46,676.00
1743.85,588.00
1745.23,548.00
1746.62,543.00
1748.00,573.00
1749.39,581.00
1750.77,529.00
1752.15,509.00
1753.53,492.00
1754.91,474.00
1756.29,414.00
1757.67,401.00
1759.04,366.00
1760.42,419.00
1761.79,400.00
1763.17,352.00
1764.54,340.00
1765.91,321.00
1767.28,368.00
1768.65,359.00
1770.02,389.00
1771.39,361.00
1772.75,323.00
1774.12,281.00
1775.48,254.00
1776.85,309.00
1778.21,273.00
1779.57,287.00
1780.93,258.00
1782.29,245.00
1783.65,229.00
1785.01,283.00
1786.36,302.00
1787.72,241.00
1789.07,216.00
1790.43,230.00
1791.78,203.00
1793.13,234.00
1794.48,171.00
1795.83,214.00
1797.18,239.00
1798.53,175.00
1799.87,207.00
1801.22,207.00
1802.57,216.00
1803.91,241.00
1805.25,224.00
1806.59,213.00
1807.93,218.00
1809.27,186.00
1810.61,142.00
1811.95,247.00
1813.29,205.00
1814.62,189.00
1815.96,198.00
1817.29,199.00
1818.62,217.00
1819.96,186.00
1821.29,218.00
1822.62,187.00
1823.95,165.00
1825.27,180.00
1826.60,137.00
1827.93,188.00
1829.25,182.00
1830.58,192.00
1831.90,186.00
1833.22,190.00
1834.54,181.00
1835.86,184.00
1837.18,165.00
1838.50,190.00
1839.82,195.00
1841.13,165.00
1842.45,155.00
1843.76,186.00
1845.07,148.00
1846.39,198.00
1847.70,170.00
1849.01,198.00
1850.32,207.00
1851.62,178.00
1852.93,191.00
1854.24,191.00
1855.54,180.00
1856.85,190.00
1858.15,168.00
1859.45,165.00
1860.75,160.00
1862.05,125.00
1863.35,182.00
1864.65,173.00
1865.95,106.00
1867.24,177.00
1868.54,162.00
1869.83,174.00
1871.13,182.00
1872.42,173.00
1873.71,135.00
1875.00,158.00
1876.29,167.00
1877.58,136.00
1878.86,125.00
1880.15,146.00
1881.44,150.00
1882.72,129.00
1884.00,199.00
1885.29,169.00
1886.57,159.00
1887.85,169.00
1889.13,176.00
1890.41,197.00
1891.68,158.00
1892.96,150.00
1894.23,178.00
1895.51,131.00
1896.78,150.00
1898.05,186.00
1899.33,141.00
1900.60,155.00
1901.87,138.00
1903.13,124.00
1904.40,166.00
1905.67,173.00
1906.93,146.00
1908.20,148.00
1909.46,133.00
1910.72,200.00
1911.99,148.00
1913.25,144.00
1914.51,118.00
1915.76,108.00
1917.02,148.00
1918.28,159.00
1919.53,117.00
1920.79,140.00
1922.04,153.00
1923.29,138.00
1924.55,100.00
1925.80,135.00
1927.05,116.00
1928.29,91.00
1929.54,116.00
1930.79,116.00
1932.03,165.00
1933.28,152.00
1934.52,119.00
1935.77,139.00
1937.01,131.00
1938.25,103.00
1939.49,125.00
1940.73,150.00
1941.96,112.00
1943.20,143.00
1944.44,110.00
1945.67,140.00
1946.90,167.00
1948.14,136.00
1949.37,93.00
1950.60,137.00
1951.83,118.00
1953.06,118.00
1954.29,156.00
1955.51,127.00
1956.74,89.00
1957.96,127.00
1959.19,87.00
1960.41,150.00
1961.63,113.00
1962.85,114.00
1964.07,108.00
1965.29,114.00
1966.51,122.00
1967.73,150.00
1968.94,122.00
1970.16,89.00
1971.37,127.00
1972.58,136.00
1973.80,106.00
1975.01,121.00
1976.22,115.00
1977.42,108.00
1978.63,107.00
1979.84,123.00
1981.05,150.00
1982.25,97.00
1983.45,81.00
1984.66,141.00
1985.86,154.00
1987.06,114.00
1988.26,105.00
1989.46,112.00
1990.66,97.00
1991.85,107.00
1993.05,117.00
1994.25,118.00
1995.44,119.00
1996.63,110.00
1997.82,124.00
1999.02,117.00
2000.21,100.00
2001.39,76.00
2002.58,110.00
2003.77,119.00
2004.96,101.00
