ENLIGHTEN Version,1.6.8
Measurement ID,20190528-083303-960393-WP-00338
Serial Number,WP-00338
Label,Methanol
Integration Time,1000
Timestamp,2019-05-28 08:33:03.960393
Note,
Temperature,-99
CCD C0,772.0532836914062
CCD C1,0.20115000009536743
CCD C2,-3.862100129481405e-06
CCD C3,-2.1540000005870752e-08
CCD Offset,0
CCD Gain,1.9
Laser Wavelength,785.0
Laser Enable,False
Laser Power,100.0
Laser Temperature,-99
Pixel Count,1024

Wavenumber,Processed
-213.62,0.00
-210.25,2.00
-206.87,16.00
-203.51,-4.00
-200.14,26.00
-196.77,-11.00
-193.41,0.00
-190.04,-11.00
-186.68,2.00
-183.33,-14.00
-179.97,-11.00
-176.61,19.00
-173.26,-6.00
-169.91,-6.00
-166.56,-7.00
-163.21,2.00
-159.87,21.00
-156.53,-11.00
-153.18,-9.00
-149.84,-14.00
-146.51,-10.00
-143.17,-4.00
-139.84,-6.00
-136.50,2.00
-133.17,2.00
-129.85,0.00
-126.52,5.00
-123.20,8.00
-119.87,15.00
-116.55,-2.00
-113.23,0.00
-109.92,-6.00
-106.60,2.00
-103.29,-2.00
-99.98,-5.00
-96.67,0.00
-93.36,4.00
-90.06,-5.00
-86.75,-4.00
-83.45,-6.00
-80.15,4.00
-76.85,-10.00
-73.56,0.00
-70.26,-6.00
-66.97,15.00
-63.68,0.00
-60.39,7.00
-57.11,-5.00
-53.82,14.00
-50.54,-27.00
-47.26,-13.00
-43.98,2.00
-40.71,14.00
-37.43,8.00
-34.16,4.00
-30.89,-6.00
-27.62,-13.00
-24.35,-4.00
-21.09,4.00
-17.82,15.00
-14.56,-10.00
-11.30,7.00
-8.04,4.00
-4.79,5.00
-1.54,4.00
1.72,13.00
4.97,-7.00
8.21,-5.00
11.46,6.00
14.70,0.00
17.95,-23.00
21.19,-17.00
24.43,0.00
27.66,-5.00
30.90,-7.00
34.13,-10.00
37.36,2.00
40.59,10.00
43.81,4.00
47.04,0.00
50.26,8.00
53.48,4.00
56.70,-15.00
59.92,25.00
63.13,17.00
66.35,8.00
69.56,10.00
72.77,10.00
75.98,-3.00
79.18,7.00
82.38,6.00
85.59,17.00
88.79,-2.00
91.98,17.00
95.18,9.00
98.37,-11.00
101.57,2.00
104.76,0.00
107.94,6.00
111.13,6.00
114.31,-6.00
117.50,2.00
120.68,-23.00
123.86,15.00
127.03,2.00
130.21,18.00
133.38,-19.00
136.55,-15.00
139.72,23.00
142.89,-2.00
146.05,-10.00
149.21,8.00
152.37,8.00
155.53,-2.00
158.69,13.00
161.85,-11.00
165.00,10.00
168.15,-10.00
171.30,-4.00
174.45,13.00
177.59,-3.00
180.74,12.00
183.88,-2.00
187.02,-10.00
190.16,2.00
193.29,6.00
196.43,9.00
199.56,-2.00
202.69,3.00
205.82,25.00
208.94,2.00
212.07,27.00
215.19,11.00
218.31,0.00
221.43,2.00
224.54,12.00
227.66,3.00
230.77,23.00
233.88,6.00
236.99,-9.00
240.10,-4.00
243.20,19.00
246.30,2.00
249.40,-9.00
252.50,9.00
255.60,9.00
258.69,-11.00
261.79,17.00
264.88,4.00
267.97,14.00
271.05,9.00
274.14,17.00
277.22,-10.00
280.30,-9.00
283.38,-17.00
286.46,6.00
289.54,16.00
292.61,20.00
295.68,9.00
298.75,1.00
301.82,10.00
304.88,24.00
307.95,11.00
311.01,8.00
314.07,7.00
317.13,6.00
320.18,-15.00
323.24,0.00
326.29,15.00
329.34,17.00
332.39,7.00
335.43,21.00
338.48,30.00
341.52,42.00
344.56,32.00
347.60,82.00
350.64,107.00
353.67,129.00
356.70,181.00
359.73,243.00
362.76,272.00
365.79,314.00
368.81,348.00
371.84,341.00
374.86,331.00
377.88,327.00
380.89,362.00
383.91,320.00
386.92,331.00
389.93,352.00
392.94,365.00
395.95,333.00
398.95,347.00
401.96,360.00
404.96,346.00
407.96,367.00
410.95,339.00
413.95,335.00
416.94,345.00
419.93,365.00
422.92,336.00
425.91,329.00
428.90,323.00
431.88,331.00
434.86,344.00
437.84,344.00
440.82,377.00
443.79,327.00
446.77,346.00
449.74,327.00
452.71,331.00
455.68,329.00
458.64,314.00
461.61,373.00
464.57,314.00
467.53,331.00
470.49,318.00
473.44,375.00
476.40,337.00
479.35,371.00
482.30,362.00
485.25,376.00
488.19,332.00
491.14,315.00
494.08,350.00
497.02,369.00
499.96,360.00
502.90,332.00
505.83,325.00
508.76,331.00
511.69,390.00
514.62,348.00
517.55,356.00
520.47,357.00
523.40,346.00
526.32,353.00
529.24,345.00
532.15,352.00
535.07,348.00
537.98,327.00
540.89,356.00
543.80,393.00
546.71,388.00
549.61,394.00
552.52,420.00
555.42,413.00
558.32,380.00
561.21,422.00
564.11,363.00
567.00,432.00
569.89,403.00
572.78,420.00
575.67,369.00
578.55,420.00
581.44,415.00
584.32,390.00
587.20,353.00
590.08,410.00
592.95,402.00
595.83,420.00
598.70,412.00
601.57,432.00
604.43,449.00
607.30,408.00
610.16,409.00
613.03,392.00
615.89,411.00
618.74,440.00
621.60,415.00
624.45,428.00
627.31,407.00
630.16,436.00
633.00,432.00
635.85,428.00
638.69,418.00
641.54,434.00
644.38,451.00
647.21,404.00
650.05,413.00
652.88,420.00
655.72,397.00
658.55,426.00
661.38,461.00
664.20,415.00
667.03,428.00
669.85,413.00
672.67,417.00
675.49,416.00
678.30,358.00
681.12,401.00
683.93,396.00
686.74,411.00
689.55,363.00
692.36,386.00
695.16,388.00
697.96,409.00
700.77,414.00
703.56,358.00
706.36,378.00
709.16,388.00
711.95,400.00
714.74,407.00
717.53,385.00
720.32,348.00
723.10,380.00
725.88,367.00
728.66,338.00
731.44,396.00
734.22,379.00
737.00,388.00
739.77,360.00
742.54,372.00
745.31,350.00
748.08,346.00
750.84,348.00
753.61,380.00
756.37,356.00
759.13,350.00
761.88,334.00
764.64,346.00
767.39,342.00
770.14,354.00
772.89,387.00
775.64,331.00
778.39,378.00
781.13,318.00
783.87,371.00
786.61,354.00
789.35,340.00
792.09,335.00
794.82,320.00
797.55,285.00
800.28,315.00
803.01,320.00
805.74,318.00
808.46,320.00
811.18,339.00
813.90,321.00
816.62,327.00
819.34,314.00
822.05,339.00
824.76,329.00
827.47,357.00
830.18,291.00
832.89,291.00
835.59,281.00
838.29,281.00
840.99,302.00
843.69,282.00
846.39,310.00
849.08,282.00
851.78,335.00
854.47,274.00
857.15,263.00
859.84,295.00
862.53,289.00
865.21,283.00
867.89,253.00
870.57,321.00
873.24,278.00
875.92,282.00
878.59,284.00
881.26,272.00
883.93,318.00
886.60,342.00
889.26,335.00
891.93,340.00
894.59,348.00
897.25,356.00
899.90,331.00
902.56,335.00
905.21,369.00
907.86,365.00
910.51,371.00
913.16,405.00
915.80,399.00
918.45,400.00
921.09,402.00
923.73,424.00
926.37,462.00
929.00,436.00
931.63,447.00
934.27,485.00
936.90,499.00
939.52,458.00
942.15,565.00
944.77,497.00
947.39,544.00
950.01,586.00
952.63,622.00
955.25,620.00
957.86,634.00
960.47,639.00
963.08,706.00
965.69,740.00
968.30,762.00
970.90,816.00
973.50,890.00
976.10,949.00
978.70,1020.00
981.30,1105.00
983.89,1220.00
986.48,1305.00
989.07,1475.00
991.66,1666.00
994.25,1948.00
996.83,2309.00
999.41,2680.00
1001.99,3272.00
1004.57,3965.00
1007.15,4817.00
1009.72,5797.00
1012.30,7012.00
1014.87,8613.00
1017.43,10537.00
1020.00,12875.00
1022.57,15620.00
1025.13,18005.00
1027.69,20209.00
1030.25,21681.00
1032.80,22292.00
1035.36,21510.00
1037.91,19629.00
1040.46,16771.00
1043.01,13547.00
1045.56,10394.00
1048.10,7863.00
1050.65,6059.00
1053.19,4865.00
1055.73,4048.00
1058.26,3462.00
1060.80,3089.00
1063.33,2770.00
1065.86,2614.00
1068.39,2488.00
1070.92,2326.00
1073.44,2293.00
1075.97,2288.00
1078.49,2241.00
1081.01,2268.00
1083.53,2290.00
1086.04,2300.00
1088.55,2435.00
1091.07,2496.00
1093.58,2659.00
1096.08,2711.00
1098.59,2860.00
1101.09,2930.00
1103.59,3046.00
1106.09,3070.00
1108.59,3086.00
1111.09,3059.00
1113.58,2995.00
1116.07,2962.00
1118.56,2762.00
1121.05,2597.00
1123.54,2498.00
1126.02,2414.00
1128.50,2279.00
1130.98,2138.00
1133.46,2025.00
1135.94,1921.00
1138.41,1937.00
1140.88,1851.00
1143.35,1881.00
1145.82,1868.00
1148.29,1855.00
1150.75,1897.00
1153.22,1959.00
1155.68,1974.00
1158.14,1886.00
1160.59,1798.00
1163.05,1717.00
1165.50,1615.00
1167.95,1472.00
1170.40,1377.00
1172.85,1235.00
1175.29,1168.00
1177.73,1128.00
1180.17,1018.00
1182.61,999.00
1185.05,938.00
1187.48,906.00
1189.92,849.00
1192.35,848.00
1194.78,752.00
1197.21,734.00
1199.63,721.00
1202.05,725.00
1204.47,639.00
1206.89,645.00
1209.31,593.00
1211.73,643.00
1214.14,583.00
1216.55,575.00
1218.96,537.00
1221.37,546.00
1223.77,535.00
1226.18,491.00
1228.58,501.00
1230.98,419.00
1233.38,475.00
1235.77,460.00
1238.17,461.00
1240.56,487.00
1242.95,415.00
1245.34,433.00
1247.72,405.00
1250.11,427.00
1252.49,418.00
1254.87,464.00
1257.25,419.00
1259.62,463.00
1262.00,425.00
1264.37,407.00
1266.74,451.00
1269.11,434.00
1271.48,418.00
1273.84,434.00
1276.20,442.00
1278.56,432.00
1280.92,428.00
1283.28,451.00
1285.63,451.00
1287.99,479.00
1290.34,472.00
1292.69,458.00
1295.03,466.00
1297.38,508.00
1299.72,552.00
1302.06,508.00
1304.40,534.00
1306.74,559.00
1309.07,557.00
1311.41,567.00
1313.74,582.00
1316.07,576.00
1318.39,620.00
1320.72,656.00
1323.04,684.00
1325.37,649.00
1327.68,647.00
1330.00,672.00
1332.32,689.00
1334.63,718.00
1336.94,772.00
1339.25,841.00
1341.56,837.00
1343.87,860.00
1346.17,888.00
1348.47,927.00
1350.77,917.00
1353.07,1000.00
1355.37,1001.00
1357.66,1046.00
1359.95,1088.00
1362.24,1144.00
1364.53,1113.00
1366.82,1187.00
1369.10,1172.00
1371.39,1344.00
1373.67,1343.00
1375.94,1369.00
1378.22,1366.00
1380.50,1408.00
1382.77,1526.00
1385.04,1539.00
1387.31,1627.00
1389.57,1705.00
1391.84,1716.00
1394.10,1800.00
1396.36,1876.00
1398.62,1896.00
1400.88,1931.00
1403.14,1974.00
1405.39,2021.00
1407.64,2100.00
1409.89,2155.00
1412.14,2184.00
1414.38,2246.00
1416.63,2349.00
1418.87,2357.00
1421.11,2455.00
1423.34,2553.00
1425.58,2742.00
1427.81,2840.00
1430.05,3101.00
1432.27,3344.00
1434.50,3650.00
1436.73,4142.00
1438.95,4769.00
1441.17,5513.00
1443.39,6480.00
1445.61,7377.00
1447.83,8000.00
1450.04,8359.00
1452.26,8355.00
1454.47,8182.00
1456.67,7988.00
1458.88,7929.00
1461.09,7825.00
1463.29,7752.00
1465.49,7757.00
1467.69,7573.00
1469.88,7358.00
1472.08,7141.00
1474.27,6885.00
1476.46,6641.00
1478.65,6297.00
1480.84,5874.00
1483.02,5608.00
1485.21,5296.00
1487.39,5055.00
1489.57,4621.00
1491.74,4362.00
1493.92,4166.00
1496.09,3900.00
1498.27,3668.00
1500.43,3454.00
1502.60,3339.00
1504.77,3131.00
1506.93,3002.00
1509.09,2884.00
1511.25,2863.00
1513.41,2737.00
1515.57,2570.00
1517.72,2561.00
1519.87,2523.00
1522.02,2432.00
1524.17,2294.00
1526.32,2349.00
1528.46,2303.00
1530.60,2187.00
1532.74,2262.00
1534.88,2131.00
1537.02,2064.00
1539.15,2112.00
1541.29,2043.00
1543.42,2033.00
1545.55,1978.00
1547.67,1923.00
1549.80,1902.00
1551.92,1845.00
1554.04,1841.00
1556.16,1741.00
1558.28,1752.00
1560.39,1704.00
1562.51,1657.00
1564.62,1566.00
1566.73,1549.00
1568.83,1482.00
1570.94,1480.00
1573.04,1377.00
1575.15,1381.00
1577.24,1297.00
1579.34,1322.00
1581.44,1223.00
1583.53,1212.00
1585.62,1161.00
1587.71,1100.00
1589.80,1066.00
1591.89,1023.00
1593.97,970.00
1596.05,894.00
1598.13,858.00
1600.21,864.00
1602.29,822.00
1604.36,800.00
1606.44,829.00
1608.51,734.00
1610.58,729.00
1612.64,677.00
1614.71,629.00
1616.77,643.00
1618.83,598.00
1620.89,552.00
1622.95,584.00
1625.00,489.00
1627.06,445.00
1629.11,464.00
1631.16,426.00
1633.20,451.00
1635.25,443.00
1637.29,407.00
1639.33,413.00
1641.37,374.00
1643.41,398.00
1645.45,333.00
1647.48,331.00
1649.51,325.00
1651.54,304.00
1653.57,276.00
1655.60,260.00
1657.62,276.00
1659.64,173.00
1661.66,243.00
1663.68,228.00
1665.70,255.00
1667.71,188.00
1669.73,196.00
1671.74,198.00
1673.74,142.00
1675.75,170.00
1677.76,207.00
1679.76,113.00
1681.76,110.00
1683.76,143.00
1685.76,144.00
1687.75,104.00
1689.74,132.00
1691.74,131.00
1693.73,105.00
1695.71,65.00
1697.70,87.00
1699.68,114.00
1701.66,105.00
1703.64,89.00
1705.62,91.00
1707.60,53.00
1709.57,76.00
1711.54,25.00
1713.51,80.00
1715.48,59.00
1717.45,47.00
1719.41,45.00
1721.37,6.00
1723.33,65.00
1725.29,26.00
1727.25,49.00
1729.20,-11.00
1731.16,28.00
1733.11,65.00
1735.06,9.00
1737.00,39.00
1738.95,58.00
1740.89,28.00
1742.83,26.00
1744.77,36.00
1746.71,10.00
1748.64,15.00
1750.58,46.00
1752.51,-9.00
1754.44,27.00
1756.37,-2.00
1758.29,13.00
1760.22,-11.00
1762.14,13.00
1764.06,55.00
1765.98,-17.00
1767.89,-13.00
1769.81,6.00
1771.72,9.00
1773.63,11.00
1775.54,3.00
1777.44,-6.00
1779.35,-25.00
1781.25,-5.00
1783.15,-12.00
1785.05,-8.00
1786.95,-40.00
1788.84,-3.00
1790.73,-4.00
1792.63,-8.00
1794.51,-25.00
1796.40,-5.00
1798.29,-33.00
1800.17,-40.00
1802.05,-32.00
1803.93,13.00
1805.81,-34.00
1807.68,2.00
1809.56,-38.00
1811.43,-7.00
1813.30,-4.00
1815.17,-48.00
1817.03,21.00
1818.90,-34.00
1820.76,-32.00
1822.62,-25.00
1824.48,-4.00
1826.33,-35.00
1828.19,-4.00
1830.04,11.00
1831.89,-45.00
1833.74,-37.00
1835.59,-11.00
1837.43,-12.00
1839.28,-8.00
1841.12,-32.00
1842.96,-21.00
1844.79,-6.00
1846.63,-23.00
1848.46,-26.00
1850.29,-34.00
1852.12,-50.00
1853.95,-42.00
1855.78,-25.00
1857.60,-26.00
1859.42,9.00
1861.24,-83.00
1863.06,2.00
1864.88,-23.00
1866.69,-17.00
1868.50,-14.00
1870.31,-29.00
1872.12,0.00
1873.93,0.00
1875.73,-28.00
1877.53,-30.00
1879.33,-43.00
1881.13,-42.00
1882.93,-44.00
1884.72,-17.00
1886.52,-21.00
1888.31,-36.00
1890.10,26.00
1891.88,-45.00
1893.67,-41.00
1895.45,-14.00
1897.24,-25.00
1899.01,0.00
1900.79,-49.00
1902.57,-19.00
1904.34,2.00
1906.11,-21.00
1907.88,-21.00
1909.65,-38.00
1911.42,-46.00
1913.18,-51.00
1914.94,-45.00
1916.70,-9.00
1918.46,-55.00
1920.22,17.00
1921.97,-33.00
1923.73,-36.00
1925.48,-2.00
1927.23,-36.00
1928.97,-15.00
1930.72,-10.00
1932.46,-36.00
1934.20,-40.00
1935.94,-13.00
1937.68,-57.00
1939.41,-31.00
1941.15,-8.00
1942.88,-6.00
1944.61,-15.00
1946.34,-2.00
1948.06,-23.00
1949.79,-25.00
1951.51,-21.00
1953.23,-4.00
1954.95,-4.00
1956.66,-13.00
1958.38,-26.00
1960.09,0.00
1961.80,-19.00
1963.51,-2.00
1965.22,-27.00
1966.92,-21.00
1968.62,-13.00
1970.32,-29.00
1972.02,-25.00
1973.72,6.00
1975.42,-35.00
1977.11,-17.00
1978.80,-5.00
1980.49,7.00
1982.18,-7.00
1983.86,-28.00
1985.55,-28.00
1987.23,8.00
1988.91,-15.00
1990.59,-3.00
1992.26,6.00
1993.94,-6.00
1995.61,-8.00
1997.28,-17.00
1998.95,-21.00
2000.61,6.00
2002.28,15.00
2003.94,-21.00
2005.60,0.00
2007.26,2.00
2008.92,-25.00
2010.57,11.00
2012.22,12.00
2013.87,6.00
2015.52,-17.00
2017.17,4.00
2018.82,17.00
2020.46,-5.00
2022.10,-10.00
2023.74,9.00
2025.38,48.00
2027.01,-4.00
2028.65,11.00
2030.28,-4.00
2031.91,40.00
2033.54,34.00
2035.16,28.00
2036.79,65.00
2038.41,61.00
2040.03,4.00
2041.65,22.00
2043.27,19.00
2044.88,38.00
2046.49,-9.00
2048.10,19.00
2049.71,21.00
2051.32,42.00
2052.93,7.00
2054.53,24.00
2056.13,37.00
2057.73,29.00
2059.33,25.00
2060.92,21.00
2062.52,3.00
2064.11,7.00
2065.70,10.00
2067.29,46.00
2068.87,10.00
2070.46,56.00
2072.04,40.00
2073.62,38.00
2075.20,-5.00
2076.77,21.00
2078.35,47.00
2079.92,16.00
2081.49,15.00
2083.06,-7.00
2084.63,-6.00
2086.19,-2.00
2087.75,11.00
2089.32,-4.00
2090.87,23.00
2092.43,-15.00
2093.99,2.00
2095.54,6.00
2097.09,-8.00
2098.64,40.00
2100.19,17.00
2101.74,21.00
2103.28,19.00
2104.82,2.00
2106.36,17.00
2107.90,13.00
2109.44,45.00
2110.97,23.00
2112.50,-4.00
2114.03,3.00
2115.56,-11.00
2117.09,-2.00
2118.61,17.00
2120.14,2.00
2121.66,19.00
2123.18,36.00
2124.69,5.00
2126.21,28.00
2127.72,11.00
2129.23,17.00
2130.74,0.00
2132.25,21.00
2133.76,10.00
2135.26,43.00
2136.76,26.00
2138.26,-8.00
2139.76,21.00
2141.25,24.00
2142.75,15.00
2144.24,15.00
2145.73,2.00
2147.22,13.00
2148.71,12.00
2150.19,9.00
2151.67,45.00
2153.15,13.00
2154.63,13.00
2156.11,42.00
2157.58,17.00
2159.06,29.00
2160.53,31.00
2162.00,19.00
2163.47,28.00
2164.93,29.00
2166.39,17.00
2167.86,3.00
2169.32,21.00
2170.77,17.00
2172.23,44.00
2173.68,32.00
2175.14,10.00
2176.59,34.00
2178.03,42.00
2179.48,40.00
2180.92,21.00
2182.37,28.00
2183.81,15.00
2185.25,19.00
2186.68,6.00
2188.12,19.00
2189.55,9.00
2190.98,13.00
2192.41,38.00
2193.84,48.00
2195.26,44.00
2196.69,36.00
2198.11,28.00
2199.53,28.00
2200.94,19.00
2202.36,28.00
2203.77,15.00
2205.19,53.00
2206.60,25.00
2208.00,6.00
2209.41,21.00
2210.81,17.00
2212.22,42.00
2213.62,36.00
2215.01,15.00
2216.41,40.00
2217.81,32.00
2219.20,30.00
2220.59,26.00
