ENLIGHTEN Version,1.6.8
Measurement ID,20190528-121424-792751-WP-00352
Serial Number,WP-00352
Label,Mineral Oil
Integration Time,200
Timestamp,2019-05-28 12:14:24.792751
Note,
Temperature,-99
CCD C0,537.1995239257812
CCD C1,0.11956000328063965
CCD C2,-1.4522999663313385e-05
CCD C3,-2.756999961661677e-09
CCD Offset,0
CCD Gain,1.9
Laser Wavelength,532.0
Laser Enable,False
Laser Power,100.0
Laser Temperature,-99
Pixel Count,1024

Wavenumber,Processed
181.94,15.00
186.08,9.00
190.22,11.00
194.35,21.00
198.48,17.00
202.61,-2.00
206.74,18.00
210.87,8.00
214.99,-3.00
219.11,13.00
223.22,8.00
227.34,9.00
231.45,17.00
235.55,7.00
239.66,7.00
243.76,17.00
247.86,4.00
251.96,14.00
256.05,31.00
260.14,11.00
264.23,31.00
268.31,18.00
272.39,25.00
276.47,15.00
280.55,29.00
284.62,32.00
288.70,17.00
292.76,11.00
296.83,19.00
300.89,32.00
304.95,46.00
309.01,28.00
313.06,23.00
317.11,38.00
321.16,49.00
325.21,61.00
329.25,59.00
333.29,82.00
337.33,87.00
341.36,117.00
345.40,137.00
349.42,181.00
353.45,227.00
357.47,276.00
361.50,390.00
365.51,521.00
369.53,692.00
373.54,945.00
377.55,1236.00
381.56,1615.00
385.56,2138.00
389.56,2738.00
393.56,3445.00
397.56,4159.00
401.55,4935.00
405.54,5661.00
409.53,6291.00
413.52,6715.00
417.50,7088.00
421.48,7305.00
425.45,7374.00
429.43,7428.00
433.40,7433.00
437.37,7507.00
441.33,7470.00
445.30,7442.00
449.26,7386.00
453.22,7311.00
457.17,7250.00
461.12,7267.00
465.07,7080.00
469.02,7147.00
472.96,7117.00
476.91,7033.00
480.84,6968.00
484.78,6974.00
488.71,6997.00
492.64,6988.00
496.57,6851.00
500.50,6837.00
504.42,6830.00
508.34,6820.00
512.26,6934.00
516.17,6833.00
520.08,6815.00
523.99,6763.00
527.90,6797.00
531.80,6636.00
535.70,6659.00
539.60,6693.00
543.50,6580.00
547.39,6584.00
551.28,6580.00
555.17,6612.00
559.05,6571.00
562.94,6476.00
566.81,6477.00
570.69,6467.00
574.57,6419.00
578.44,6417.00
582.31,6423.00
586.17,6431.00
590.04,6473.00
593.90,6404.00
597.76,6411.00
601.61,6366.00
605.46,6416.00
609.31,6377.00
613.16,6355.00
617.01,6306.00
620.85,6343.00
624.69,6335.00
628.53,6324.00
632.36,6388.00
636.19,6322.00
640.02,6384.00
643.85,6398.00
647.67,6424.00
651.49,6422.00
655.31,6388.00
659.13,6432.00
662.94,6421.00
666.75,6476.00
670.56,6521.00
674.37,6519.00
678.17,6576.00
681.97,6607.00
685.77,6638.00
689.56,6713.00
693.35,6712.00
697.14,6774.00
700.93,6778.00
704.72,6928.00
708.50,6903.00
712.28,7044.00
716.05,7100.00
719.83,7147.00
723.60,7323.00
727.37,7408.00
731.14,7475.00
734.90,7585.00
738.66,7743.00
742.42,7775.00
746.18,7780.00
749.93,7950.00
753.68,8110.00
757.43,8208.00
761.17,8308.00
764.92,8528.00
768.66,8524.00
772.40,8659.00
776.13,8828.00
779.86,8774.00
783.60,8781.00
787.32,8893.00
791.05,8808.00
794.77,8941.00
798.49,9124.00
802.21,9120.00
805.92,9144.00
809.64,9312.00
813.35,9481.00
817.05,9439.00
820.76,9636.00
824.46,9681.00
828.16,9719.00
831.86,9772.00
835.55,9951.00
839.24,9889.00
842.93,9965.00
846.62,10063.00
850.30,10010.00
853.98,9957.00
857.66,9917.00
861.34,9985.00
865.02,9936.00
868.69,9976.00
872.36,9945.00
876.02,9830.00
879.69,9829.00
883.35,9832.00
887.01,9794.00
890.66,9769.00
894.32,9674.00
897.97,9700.00
901.62,9683.00
905.26,9456.00
908.91,9436.00
912.55,9253.00
916.19,9196.00
919.83,9184.00
923.46,9141.00
927.09,9177.00
930.72,9125.00
934.35,9023.00
937.97,9046.00
941.59,9069.00
945.21,9097.00
948.83,9004.00
952.44,9128.00
956.05,9120.00
959.66,9226.00
963.27,9201.00
966.87,9359.00
970.47,9221.00
974.07,9263.00
977.67,9319.00
981.26,9289.00
984.85,9242.00
988.44,9270.00
992.03,9358.00
995.61,9447.00
999.19,9426.00
1002.77,9531.00
1006.35,9619.00
1009.92,9702.00
1013.50,9738.00
1017.07,9976.00
1020.63,10103.00
1024.20,10259.00
1027.76,10419.00
1031.32,10539.00
1034.87,10699.00
1038.43,10834.00
1041.98,10951.00
1045.53,11077.00
1049.08,11134.00
1052.62,11328.00
1056.16,11537.00
1059.70,11741.00
1063.24,11912.00
1066.78,12124.00
1070.31,12101.00
1073.84,12125.00
1077.37,12108.00
1080.89,12118.00
1084.42,12183.00
1087.94,12021.00
1091.45,11829.00
1094.97,11591.00
1098.48,11389.00
1101.99,11302.00
1105.50,11139.00
1109.01,11115.00
1112.51,11138.00
1116.01,11016.00
1119.51,11231.00
1123.00,11303.00
1126.50,11534.00
1129.99,11511.00
1133.48,11707.00
1136.96,11833.00
1140.45,12102.00
1143.93,12194.00
1147.41,12456.00
1150.89,12441.00
1154.36,12685.00
1157.83,12702.00
1161.30,12824.00
1164.77,12752.00
1168.23,12702.00
1171.70,12666.00
1175.16,12607.00
1178.61,12597.00
1182.07,12635.00
1185.52,12525.00
1188.97,12518.00
1192.42,12415.00
1195.87,12465.00
1199.31,12553.00
1202.75,12553.00
1206.19,12757.00
1209.62,12753.00
1213.06,12755.00
1216.49,12811.00
1219.92,12885.00
1223.34,12965.00
1226.77,13059.00
1230.19,13092.00
1233.61,13125.00
1237.03,13279.00
1240.44,13265.00
1243.85,13421.00
1247.26,13506.00
1250.67,13554.00
1254.08,13756.00
1257.48,13886.00
1260.88,14018.00
1264.28,14173.00
1267.67,14321.00
1271.07,14466.00
1274.46,14621.00
1277.85,14799.00
1281.23,14912.00
1284.62,15143.00
1288.00,15444.00
1291.38,15976.00
1294.76,16549.00
1298.13,17078.00
1301.50,17610.00
1304.87,17850.00
1308.24,17784.00
1311.61,17553.00
1314.97,17085.00
1318.33,16725.00
1321.69,16320.00
1325.04,16190.00
1328.40,15853.00
1331.75,15866.00
1335.10,15768.00
1338.44,15823.00
1341.79,15870.00
1345.13,15818.00
1348.47,15727.00
1351.81,15719.00
1355.14,15590.00
1358.48,15575.00
1361.81,15439.00
1365.13,15314.00
1368.46,15101.00
1371.78,14823.00
1375.11,14507.00
1378.42,14163.00
1381.74,13813.00
1385.06,13531.00
1388.37,13280.00
1391.68,13130.00
1394.98,12850.00
1398.29,12850.00
1401.59,12666.00
1404.89,12721.00
1408.19,12603.00
1411.49,12734.00
1414.78,12827.00
1418.07,12795.00
1421.36,13170.00
1424.65,13478.00
1427.93,14298.00
1431.21,15814.00
1434.49,17552.00
1437.77,19564.00
1441.05,21190.00
1444.32,22098.00
1447.59,22309.00
1450.86,22269.00
1454.12,21957.00
1457.39,21491.00
1460.65,20754.00
1463.91,19731.00
1467.17,18681.00
1470.42,17205.00
1473.67,15807.00
1476.92,14678.00
1480.17,13811.00
1483.42,13256.00
1486.66,12791.00
1489.90,12540.00
1493.14,12343.00
1496.38,12133.00
1499.61,12006.00
1502.85,11968.00
1506.08,11932.00
1509.30,11832.00
1512.53,11798.00
1515.75,11850.00
1518.97,11806.00
1522.19,11828.00
1525.41,11766.00
1528.62,11743.00
1531.83,11773.00
1535.04,11766.00
1538.25,11650.00
1541.46,11735.00
1544.66,11740.00
1547.86,11696.00
1551.06,11715.00
1554.26,11719.00
1557.45,11671.00
1560.64,11688.00
1563.83,11667.00
1567.02,11657.00
1570.20,11557.00
1573.39,11534.00
1576.57,11458.00
1579.75,11444.00
1582.92,11475.00
1586.10,11403.00
1589.27,11424.00
1592.44,11384.00
1595.60,11376.00
1598.77,11429.00
1601.93,11374.00
1605.09,11245.00
1608.25,11213.00
1611.41,11218.00
1614.56,11104.00
1617.71,11069.00
1620.86,11076.00
1624.01,11027.00
1627.16,10969.00
1630.30,11042.00
1633.44,11043.00
1636.58,11026.00
1639.72,10954.00
1642.85,10933.00
1645.98,10840.00
1649.11,10885.00
1652.24,10844.00
1655.37,10830.00
1658.49,10761.00
1661.61,10691.00
1664.73,10736.00
1667.85,10659.00
1670.96,10680.00
1674.07,10665.00
1677.18,10691.00
1680.29,10653.00
1683.40,10589.00
1686.50,10598.00
1689.60,10491.00
1692.70,10493.00
1695.80,10319.00
1698.89,10412.00
1701.99,10335.00
1705.08,10234.00
1708.17,10223.00
1711.25,10227.00
1714.34,10236.00
1717.42,10166.00
1720.50,10104.00
1723.58,10043.00
1726.65,9905.00
1729.72,9907.00
1732.79,9909.00
1735.86,9957.00
1738.93,9924.00
1742.00,9839.00
1745.06,9829.00
1748.12,9854.00
1751.18,9809.00
1754.23,9708.00
1757.29,9692.00
1760.34,9655.00
1763.39,9654.00
1766.44,9656.00
1769.48,9607.00
1772.52,9653.00
1775.56,9586.00
1778.60,9566.00
1781.64,9707.00
1784.67,9544.00
1787.71,9599.00
1790.74,9593.00
1793.77,9518.00
1796.79,9565.00
1799.82,9495.00
1802.84,9512.00
1805.86,9424.00
1808.87,9450.00
1811.89,9466.00
1814.90,9430.00
1817.91,9491.00
1820.92,9390.00
1823.93,9484.00
1826.94,9475.00
1829.94,9407.00
1832.94,9424.00
1835.94,9294.00
1838.93,9299.00
1841.93,9314.00
1844.92,9277.00
1847.91,9213.00
1850.90,9167.00
1853.88,9259.00
1856.87,9270.00
1859.85,9179.00
1862.83,9110.00
1865.80,9186.00
1868.78,9028.00
1871.75,9160.00
1874.72,9124.00
1877.69,9149.00
1880.66,9044.00
1883.62,9085.00
1886.59,9036.00
1889.55,9133.00
1892.51,9053.00
1895.46,9027.00
1898.42,9042.00
1901.37,9014.00
1904.32,9036.00
1907.27,9006.00
1910.21,8913.00
1913.16,8846.00
1916.10,8911.00
1919.04,8918.00
1921.97,8928.00
1924.91,8962.00
1927.84,8861.00
1930.77,8861.00
1933.70,8908.00
1936.63,8829.00
1939.56,8830.00
1942.48,8766.00
1945.40,8939.00
1948.32,8868.00
1951.24,8784.00
1954.15,8703.00
1957.06,8745.00
1959.97,8831.00
1962.88,8692.00
1965.79,8724.00
1968.69,8794.00
1971.59,8651.00
1974.49,8717.00
1977.39,8591.00
1980.29,8653.00
1983.18,8576.00
1986.08,8542.00
1988.97,8667.00
1991.85,8639.00
1994.74,8610.00
1997.62,8568.00
2000.50,8551.00
2003.38,8515.00
2006.26,8562.00
2009.14,8438.00
2012.01,8423.00
2014.88,8496.00
2017.75,8482.00
2020.62,8429.00
2023.48,8418.00
2026.35,8446.00
2029.21,8490.00
2032.07,8418.00
2034.92,8524.00
2037.78,8454.00
2040.63,8454.00
2043.48,8399.00
2046.33,8458.00
2049.18,8431.00
2052.02,8363.00
2054.87,8376.00
2057.71,8416.00
2060.55,8410.00
2063.38,8461.00
2066.22,8435.00
2069.05,8441.00
2071.88,8361.00
2074.71,8404.00
2077.54,8454.00
2080.36,8420.00
2083.18,8410.00
2086.01,8361.00
2088.82,8334.00
2091.64,8407.00
2094.46,8496.00
2097.27,8408.00
2100.08,8374.00
2102.89,8330.00
2105.69,8380.00
2108.50,8351.00
2111.30,8431.00
2114.10,8344.00
2116.90,8307.00
2119.70,8391.00
2122.49,8376.00
2125.28,8364.00
2128.07,8340.00
2130.86,8417.00
2133.65,8431.00
2136.43,8474.00
2139.22,8458.00
2142.00,8410.00
2144.77,8433.00
2147.55,8469.00
2150.32,8477.00
2153.10,8446.00
2155.87,8452.00
2158.64,8389.00
2161.40,8384.00
2164.17,8380.00
2166.93,8440.00
2169.69,8519.00
2172.45,8524.00
2175.21,8519.00
2177.96,8499.00
2180.71,8558.00
2183.46,8584.00
2186.21,8536.00
2188.96,8511.00
2191.70,8530.00
2194.45,8557.00
2197.19,8504.00
2199.93,8568.00
2202.66,8473.00
2205.40,8462.00
2208.13,8437.00
2210.86,8559.00
2213.59,8442.00
2216.32,8481.00
2219.04,8447.00
2221.76,8425.00
2224.49,8471.00
2227.20,8457.00
2229.92,8407.00
2232.64,8431.00
2235.35,8393.00
2238.06,8408.00
2240.77,8416.00
2243.48,8376.00
2246.18,8283.00
2248.89,8393.00
2251.59,8344.00
2254.29,8248.00
2256.99,8393.00
2259.68,8248.00
2262.37,8277.00
2265.07,8317.00
2267.76,8298.00
2270.44,8251.00
2273.13,8245.00
2275.81,8140.00
2278.50,8213.00
2281.18,8184.00
2283.85,8178.00
2286.53,8127.00
2289.20,8185.00
2291.88,8129.00
2294.55,8216.00
2297.21,8174.00
2299.88,8132.00
2302.55,8098.00
2305.21,8114.00
2307.87,8106.00
2310.53,8125.00
2313.18,8163.00
2315.84,8043.00
2318.49,8144.00
2321.14,7993.00
2323.79,8011.00
2326.44,8062.00
2329.08,8030.00
2331.73,8043.00
2334.37,8106.00
2337.01,7956.00
2339.65,8049.00
2342.28,8051.00
2344.91,7977.00
2347.55,8070.00
2350.18,8049.00
2352.80,7982.00
2355.43,8064.00
2358.05,8106.00
2360.68,8023.00
2363.30,8104.00
2365.91,8058.00
2368.53,8174.00
2371.15,8021.00
2373.76,8024.00
2376.37,8062.00
2378.98,8037.00
2381.58,8013.00
2384.19,8100.00
2386.79,8090.00
2389.39,8121.00
2391.99,8101.00
2394.59,8163.00
2397.19,8165.00
2399.78,8125.00
2402.37,8093.00
2404.96,8032.00
2407.55,8136.00
2410.13,8070.00
2412.72,8140.00
2415.30,8156.00
2417.88,8104.00
2420.46,8182.00
2423.04,8163.00
2425.61,8156.00
2428.18,8102.00
2430.75,8216.00
2433.32,8041.00
2435.89,8100.00
2438.46,8156.00
2441.02,8060.00
2443.58,8189.00
2446.14,8115.00
2448.70,8080.00
2451.25,8108.00
2453.81,8078.00
2456.36,8119.00
2458.91,8154.00
2461.46,8003.00
2464.00,8062.00
2466.55,8030.00
2469.09,8087.00
2471.63,8032.00
2474.17,8084.00
2476.71,8041.00
2479.24,8022.00
2481.78,7925.00
2484.31,8001.00
2486.84,7937.00
2489.36,7955.00
2491.89,7955.00
2494.41,7936.00
2496.94,7912.00
2499.46,7950.00
2501.98,7986.00
2504.49,7984.00
2507.01,7883.00
2509.52,7925.00
2512.03,7900.00
2514.54,7902.00
2517.05,7925.00
2519.55,7955.00
2522.06,7855.00
2524.56,7904.00
2527.06,7923.00
2529.55,7845.00
2532.05,7885.00
2534.55,7884.00
2537.04,7946.00
2539.53,7944.00
2542.02,7977.00
2544.50,7930.00
2546.99,7950.00
2549.47,7930.00
2551.95,7841.00
2554.43,7899.00
2556.91,7944.00
2559.39,7927.00
2561.86,7937.00
2564.33,7948.00
2566.80,8035.00
2569.27,8047.00
2571.74,8009.00
2574.20,8013.00
2576.67,8050.00
2579.13,8007.00
2581.59,8060.00
2584.04,8123.00
2586.50,8123.00
2588.95,8199.00
2591.40,8296.00
2593.85,8294.00
2596.30,8324.00
2598.75,8254.00
2601.19,8286.00
2603.64,8215.00
2606.08,8300.00
2608.52,8334.00
2610.95,8304.00
2613.39,8277.00
2615.82,8378.00
2618.26,8338.00
2620.69,8325.00
2623.11,8342.00
2625.54,8380.00
2627.96,8331.00
2630.39,8383.00
2632.81,8458.00
2635.23,8366.00
2637.65,8502.00
2640.06,8526.00
2642.47,8509.00
2644.89,8536.00
2647.30,8608.00
2649.71,8656.00
2652.11,8664.00
2654.52,8660.00
2656.92,8811.00
2659.32,8787.00
2661.72,8930.00
2664.12,8844.00
2666.51,8975.00
2668.91,9074.00
2671.30,9095.00
2673.69,8939.00
2676.08,9005.00
2678.46,8915.00
2680.85,9067.00
2683.23,8983.00
2685.61,8982.00
2687.99,8991.00
2690.37,9018.00
2692.75,9034.00
2695.12,9050.00
2697.49,9118.00
2699.86,9215.00
2702.23,9272.00
2704.60,9327.00
2706.97,9531.00
2709.33,9691.00
2711.69,9877.00
2714.05,10092.00
2716.41,10312.00
2718.76,10548.00
2721.12,10714.00
2723.47,10790.00
2725.82,10862.00
2728.17,10803.00
2730.52,10720.00
2732.86,10442.00
2735.21,10259.00
2737.55,10021.00
2739.89,9709.00
2742.23,9472.00
2744.57,9250.00
2746.90,9057.00
2749.23,8850.00
2751.57,8739.00
2753.90,8608.00
2756.22,8479.00
2758.55,8431.00
2760.87,8275.00
2763.20,8243.00
2765.52,8128.00
2767.84,8082.00
2770.15,8045.00
2772.47,7990.00
2774.78,7872.00
2777.09,7885.00
2779.40,8026.00
2781.71,7984.00
2784.02,8024.00
2786.32,7986.00
2788.63,8049.00
2790.93,8115.00
2793.23,8076.00
2795.53,8156.00
2797.82,8285.00
2800.12,8304.00
2802.41,8485.00
2804.70,8614.00
2806.99,8725.00
2809.28,8833.00
2811.56,8962.00
2813.85,9145.00
2816.13,9506.00
2818.41,9779.00
2820.69,10251.00
2822.96,10723.00
2825.24,11437.00
2827.51,12299.00
2829.79,13538.00
2832.05,15253.00
2834.32,17425.00
2836.59,20614.00
2838.85,24581.00
2841.12,29490.00
2843.38,35077.00
2845.64,40980.00
2847.90,46203.00
2850.15,50215.00
2852.41,52737.00
2854.66,53835.00
2856.91,53787.00
2859.16,53088.00
2861.41,52223.00
2863.65,51831.00
2865.90,51774.00
2868.14,51960.00
2870.38,52324.00
2872.62,52305.00
2874.85,52042.00
2877.09,51369.00
2879.32,50574.00
2881.55,49720.00
2883.78,49172.00
2886.01,48976.00
2888.24,48860.00
2890.46,48970.00
2892.69,49320.00
2894.91,49284.00
2897.13,49440.00
2899.35,49234.00
2901.56,49187.00
2903.78,49145.00
2905.99,48890.00
2908.20,48687.00
2910.41,48377.00
2912.62,48032.00
2914.82,47880.00
2917.03,47749.00
2919.23,47686.00
2921.43,47894.00
2923.63,47849.00
2925.83,47887.00
2928.02,48075.00
2930.22,47850.00
2932.41,47547.00
2934.60,46604.00
2936.79,45424.00
2938.98,43728.00
2941.16,41679.00
2943.35,39236.00
2945.53,36995.00
2947.71,34699.00
2949.89,32810.00
2952.06,31391.00
2954.24,30356.00
2956.41,29743.00
2958.58,28763.00
2960.75,27700.00
2962.92,26812.00
2965.09,25324.00
2967.25,23836.00
2969.42,22015.00
2971.58,20201.00
2973.74,18457.00
2975.90,16887.00
2978.05,15340.00
2980.21,14109.00
2982.36,12961.00
2984.51,11857.00
2986.66,10997.00
2988.81,10459.00
2990.96,9734.00
2993.10,9348.00
2995.25,8924.00
2997.39,8657.00
2999.53,8227.00
3001.66,7963.00
3003.80,7834.00
3005.94,7630.00
3008.07,7446.00
3010.20,7355.00
3012.33,7115.00
3014.46,6995.00
3016.58,6907.00
3018.71,6780.00
3020.83,6698.00
3022.95,6623.00
3025.07,6452.00
3027.19,6348.00
3029.31,6306.00
3031.42,6217.00
3033.53,6164.00
3035.64,6060.00
3037.75,5954.00
3039.86,5911.00
3041.97,5900.00
3044.07,5860.00
3046.17,5736.00
3048.28,5718.00
3050.38,5673.00
3052.47,5606.00
3054.57,5537.00
3056.66,5490.00
3058.76,5462.00
3060.85,5427.00
3062.94,5367.00
3065.02,5338.00
3067.11,5251.00
3069.20,5281.00
3071.28,5154.00
3073.36,5112.00
3075.44,5085.00
3077.52,5104.00
3079.59,5083.00
3081.67,5039.00
3083.74,4950.00
3085.81,4974.00
3087.88,4939.00
3089.95,4807.00
3092.01,4802.00
3094.08,4826.00
3096.14,4767.00
3098.20,4765.00
3100.26,4750.00
3102.32,4725.00
3104.38,4690.00
3106.43,4681.00
3108.48,4582.00
3110.54,4600.00
3112.59,4600.00
3114.63,4535.00
3116.68,4499.00
3118.72,4510.00
3120.77,4438.00
3122.81,4501.00
3124.85,4411.00
3126.89,4371.00
3128.92,4404.00
3130.96,4413.00
3132.99,4432.00
3135.02,4299.00
3137.05,4293.00
3139.08,4293.00
3141.11,4282.00
3143.13,4264.00
3145.16,4250.00
3147.18,4193.00
3149.20,4269.00
3151.22,4178.00
3153.23,4134.00
3155.25,4109.00
3157.26,4172.00
3159.28,4142.00
3161.29,4092.00
3163.29,4089.00
3165.30,4042.00
3167.31,4038.00
3169.31,4027.00
3171.31,3930.00
3173.31,3986.00
3175.31,3976.00
3177.31,3934.00
3179.31,3915.00
3181.30,3915.00
3183.29,3915.00
3185.28,3835.00
3187.27,3845.00
3189.26,3811.00
3191.25,3834.00
3193.23,3734.00
3195.21,3746.00
3197.19,3700.00
3199.17,3735.00
3201.15,3652.00
3203.13,3607.00
3205.10,3630.00
