ENLIGHTEN Version,1.6.8
Measurement ID,20190528-175651-320912-WP-00421
Serial Number,WP-00421
Label,Naphthalene
Integration Time,200
Timestamp,2019-05-28 17:56:51.320912
Note,
Temperature,-99
CCD C0,845.722412109375
CCD C1,0.1515599936246872
CCD C2,-8.504200195602607e-06
CCD C3,-7.913800281755812e-09
CCD Offset,0
CCD Gain,1.9
Laser Wavelength,830.0
Laser Enable,True
Laser Power,100.0
Laser Temperature,-99
Pixel Count,1024

Wavenumber,Processed
223.98,446.00
226.10,500.00
228.22,567.00
230.33,634.00
232.45,697.00
234.56,686.00
236.68,763.00
238.79,758.00
240.90,832.00
243.01,801.00
245.12,822.00
247.23,820.00
249.34,828.00
251.44,801.00
253.55,811.00
255.65,776.00
257.76,795.00
259.86,803.00
261.96,789.00
264.06,834.00
266.16,821.00
268.26,792.00
270.36,778.00
272.46,842.00
274.55,826.00
276.65,845.00
278.74,816.00
280.83,813.00
282.92,822.00
285.01,824.00
287.10,858.00
289.19,837.00
291.28,843.00
293.37,843.00
295.45,841.00
297.54,826.00
299.62,849.00
301.70,807.00
303.78,839.00
305.86,841.00
307.94,843.00
310.02,841.00
312.10,828.00
314.18,849.00
316.25,822.00
318.33,835.00
320.40,819.00
322.47,852.00
324.54,871.00
326.62,858.00
328.69,841.00
330.75,841.00
332.82,824.00
334.89,879.00
336.95,860.00
339.02,822.00
341.08,877.00
343.14,893.00
345.21,884.00
347.27,837.00
349.33,889.00
351.39,871.00
353.44,877.00
355.50,913.00
357.56,925.00
359.61,898.00
361.66,955.00
363.72,949.00
365.77,989.00
367.82,1019.00
369.87,1057.00
371.92,1092.00
373.96,1148.00
376.01,1164.00
378.06,1183.00
380.10,1221.00
382.15,1475.00
384.19,1839.00
386.23,2479.00
388.27,3099.00
390.31,3641.00
392.35,3700.00
394.39,3457.00
396.42,2908.00
398.46,2199.00
400.49,1545.00
402.53,1225.00
404.56,1052.00
406.59,1014.00
408.62,1006.00
410.65,999.00
412.68,1004.00
414.71,976.00
416.74,1018.00
418.76,986.00
420.79,972.00
422.81,968.00
424.83,964.00
426.86,989.00
428.88,982.00
430.90,972.00
432.91,967.00
434.93,941.00
436.95,959.00
438.97,969.00
440.98,949.00
442.99,924.00
445.01,978.00
447.02,910.00
449.03,953.00
451.04,961.00
453.05,908.00
455.06,979.00
457.06,983.00
459.07,1039.00
461.07,1175.00
463.08,1344.00
465.08,1471.00
467.08,1504.00
469.08,1502.00
471.08,1403.00
473.08,1217.00
475.08,1094.00
477.08,1004.00
479.07,984.00
481.07,943.00
483.06,966.00
485.05,923.00
487.05,943.00
489.04,962.00
491.03,941.00
493.02,993.00
495.00,999.00
496.99,1025.00
498.98,1131.00
500.96,1332.00
502.95,2020.00
504.93,3655.00
506.91,6320.00
508.89,9923.00
510.87,14238.00
512.85,16921.00
514.83,16896.00
516.81,14380.00
518.78,10844.00
520.76,6289.00
522.73,2952.00
524.71,1669.00
526.68,1283.00
528.65,1133.00
530.62,1033.00
532.59,1023.00
534.56,980.00
536.52,985.00
538.49,947.00
540.45,951.00
542.42,982.00
544.38,955.00
546.34,949.00
548.30,957.00
550.26,987.00
552.22,1002.00
554.18,987.00
556.14,940.00
558.10,989.00
560.05,960.00
562.00,946.00
563.96,923.00
565.91,940.00
567.86,925.00
569.81,934.00
571.76,871.00
573.71,898.00
575.66,926.00
577.60,898.00
579.55,917.00
581.49,915.00
583.43,896.00
585.38,938.00
587.32,922.00
589.26,887.00
591.20,894.00
593.14,874.00
595.07,899.00
597.01,890.00
598.95,928.00
600.88,898.00
602.81,912.00
604.75,899.00
606.68,889.00
608.61,876.00
610.54,900.00
612.46,898.00
614.39,921.00
616.32,934.00
618.24,914.00
620.17,896.00
622.09,913.00
624.01,871.00
625.94,879.00
627.86,894.00
629.78,919.00
631.69,932.00
633.61,837.00
635.53,894.00
637.44,898.00
639.36,888.00
641.27,915.00
643.18,904.00
645.10,902.00
647.01,882.00
648.92,900.00
650.82,921.00
652.73,914.00
654.64,915.00
656.54,909.00
658.45,904.00
660.35,917.00
662.25,922.00
664.16,911.00
666.06,914.00
667.96,907.00
669.86,904.00
671.75,974.00
673.65,957.00
675.55,951.00
677.44,936.00
679.33,946.00
681.23,951.00
683.12,875.00
685.01,938.00
686.90,944.00
688.79,967.00
690.68,936.00
692.56,984.00
694.45,987.00
696.33,962.00
698.22,972.00
700.10,963.00
701.98,934.00
703.86,978.00
705.74,963.00
707.62,964.00
709.50,991.00
711.38,976.00
713.25,979.00
715.13,999.00
717.00,1019.00
718.87,1042.00
720.75,1221.00
722.62,1410.00
724.49,1610.00
726.36,1675.00
728.22,1636.00
730.09,1545.00
731.96,1325.00
733.82,1147.00
735.69,1088.00
737.55,1038.00
739.41,1092.00
741.27,1031.00
743.13,1115.00
744.99,1092.00
746.85,1154.00
748.71,1253.00
750.56,1425.00
752.42,1781.00
754.27,2455.00
756.12,3812.00
757.98,6618.00
759.83,12090.00
761.68,20008.00
763.53,26046.00
765.38,28403.00
767.22,27913.00
769.07,23459.00
770.91,15909.00
772.76,9078.00
774.60,5368.00
776.44,4002.00
778.29,3590.00
780.13,3554.00
781.97,3746.00
783.80,3704.00
785.64,3567.00
787.48,3242.00
789.31,2773.00
791.15,2158.00
792.98,1627.00
794.81,1331.00
796.64,1188.00
798.48,1124.00
800.30,1081.00
802.13,1020.00
803.96,993.00
805.79,985.00
807.61,999.00
809.44,1039.00
811.26,989.00
813.08,978.00
814.91,946.00
816.73,1051.00
818.55,987.00
820.36,980.00
822.18,945.00
824.00,936.00
825.81,968.00
827.63,991.00
829.44,1014.00
831.26,980.00
833.07,996.00
834.88,955.00
836.69,953.00
838.50,917.00
840.30,880.00
842.11,868.00
843.92,877.00
845.72,890.00
847.53,874.00
849.33,845.00
851.13,832.00
852.93,899.00
854.73,824.00
856.53,900.00
858.33,860.00
860.13,852.00
861.92,919.00
863.72,907.00
865.51,893.00
867.30,913.00
869.10,917.00
870.89,898.00
872.68,925.00
874.47,976.00
876.26,931.00
878.04,965.00
879.83,923.00
881.61,898.00
883.40,858.00
885.18,867.00
886.96,900.00
888.75,846.00
890.53,807.00
892.30,856.00
894.08,847.00
895.86,858.00
897.64,869.00
899.41,797.00
901.19,864.00
902.96,828.00
904.73,875.00
906.50,797.00
908.27,862.00
910.04,887.00
911.81,858.00
913.58,883.00
915.35,848.00
917.11,854.00
918.88,872.00
920.64,866.00
922.40,837.00
924.17,836.00
925.93,857.00
927.69,874.00
929.44,774.00
931.20,904.00
932.96,957.00
934.71,927.00
936.47,1007.00
938.22,1063.00
939.98,1032.00
941.73,1071.00
943.48,1097.00
945.23,1179.00
946.98,1279.00
948.73,1407.00
950.47,1454.00
952.22,1450.00
953.96,1373.00
955.71,1279.00
957.45,1118.00
959.19,1025.00
960.93,973.00
962.67,960.00
964.41,953.00
966.15,942.00
967.89,921.00
969.63,995.00
971.36,1019.00
973.09,949.00
974.83,1025.00
976.56,1077.00
978.29,1181.00
980.02,1217.00
981.75,1223.00
983.48,1153.00
985.21,1097.00
986.93,1061.00
988.66,974.00
990.38,916.00
992.11,896.00
993.83,913.00
995.55,873.00
997.27,871.00
998.99,859.00
1000.71,898.00
1002.43,904.00
1004.14,987.00
1005.86,964.00
1007.57,1015.00
1009.29,1105.00
1011.00,1361.00
1012.71,1817.00
1014.42,2829.00
1016.13,4839.00
1017.84,7804.00
1019.55,10990.00
1021.26,13382.00
1022.96,14460.00
1024.67,13618.00
1026.37,11402.00
1028.08,8348.00
1029.78,5473.00
1031.48,3406.00
1033.18,2295.00
1034.88,1717.00
1036.58,1392.00
1038.27,1171.00
1039.97,1069.00
1041.66,1122.00
1043.36,1124.00
1045.05,1087.00
1046.74,1158.00
1048.44,1078.00
1050.13,1073.00
1051.82,1018.00
1053.50,946.00
1055.19,926.00
1056.88,904.00
1058.56,841.00
1060.25,841.00
1061.93,841.00
1063.61,796.00
1065.30,788.00
1066.98,775.00
1068.66,777.00
1070.33,741.00
1072.01,730.00
1073.69,729.00
1075.36,752.00
1077.04,710.00
1078.71,668.00
1080.39,703.00
1082.06,706.00
1083.73,687.00
1085.40,695.00
1087.07,718.00
1088.74,682.00
1090.40,723.00
1092.07,717.00
1093.73,699.00
1095.40,737.00
1097.06,714.00
1098.72,704.00
1100.38,700.00
1102.04,715.00
1103.70,721.00
1105.36,753.00
1107.02,723.00
1108.67,744.00
1110.33,759.00
1111.98,729.00
1113.64,754.00
1115.29,744.00
1116.94,725.00
1118.59,729.00
1120.24,733.00
1121.89,693.00
1123.54,689.00
1125.18,712.00
1126.83,709.00
1128.47,702.00
1130.12,706.00
1131.76,722.00
1133.40,677.00
1135.04,767.00
1136.68,771.00
1138.32,908.00
1139.96,1061.00
1141.60,1443.00
1143.23,2152.00
1144.87,3235.00
1146.50,4026.00
1148.13,4502.00
1149.77,4605.00
1151.40,4184.00
1153.03,3453.00
1154.66,2616.00
1156.29,2081.00
1157.91,1914.00
1159.54,1927.00
1161.16,2056.00
1162.79,2127.00
1164.41,2282.00
1166.03,2628.00
1167.66,2967.00
1169.28,3171.00
1170.89,3068.00
1172.51,2850.00
1174.13,2487.00
1175.75,1828.00
1177.36,1270.00
1178.98,1037.00
1180.59,908.00
1182.20,818.00
1183.82,767.00
1185.43,752.00
1187.04,715.00
1188.64,698.00
1190.25,705.00
1191.86,715.00
1193.47,695.00
1195.07,712.00
1196.67,630.00
1198.28,667.00
1199.88,647.00
1201.48,668.00
1203.08,678.00
1204.68,613.00
1206.28,668.00
1207.88,657.00
1209.47,664.00
1211.07,653.00
1212.66,621.00
1214.25,655.00
1215.85,684.00
1217.44,592.00
1219.03,619.00
1220.62,640.00
1222.21,628.00
1223.79,659.00
1225.38,634.00
1226.97,672.00
1228.55,653.00
1230.13,716.00
1231.72,697.00
1233.30,704.00
1234.88,773.00
1236.46,829.00
1238.04,904.00
1239.62,1008.00
1241.19,1171.00
1242.77,1424.00
1244.34,1631.00
1245.92,1697.00
1247.49,1623.00
1249.06,1515.00
1250.63,1236.00
1252.20,962.00
1253.77,788.00
1255.34,712.00
1256.91,632.00
1258.48,648.00
1260.04,625.00
1261.61,635.00
1263.17,665.00
1264.73,646.00
1266.29,687.00
1267.85,753.00
1269.41,794.00
1270.97,871.00
1272.53,932.00
1274.09,989.00
1275.64,997.00
1277.20,1012.00
1278.75,953.00
1280.30,919.00
1281.86,843.00
1283.41,755.00
1284.96,714.00
1286.51,691.00
1288.05,674.00
1289.60,651.00
1291.15,645.00
1292.69,629.00
1294.24,615.00
1295.78,634.00
1297.32,625.00
1298.86,606.00
1300.40,638.00
1301.94,613.00
1303.48,602.00
1305.02,623.00
1306.56,602.00
1308.09,611.00
1309.63,615.00
1311.16,607.00
1312.69,633.00
1314.22,619.00
1315.75,595.00
1317.28,579.00
1318.81,638.00
1320.34,602.00
1321.87,617.00
1323.39,628.00
1324.92,611.00
1326.44,644.00
1327.97,647.00
1329.49,653.00
1331.01,744.00
1332.53,815.00
1334.05,894.00
1335.57,972.00
1337.08,1040.00
1338.60,1150.00
1340.12,1166.00
1341.63,1146.00
1343.14,1174.00
1344.66,1124.00
1346.17,1096.00
1347.68,1101.00
1349.19,1090.00
1350.70,1059.00
1352.20,1079.00
1353.71,1048.00
1355.22,1029.00
1356.72,1018.00
1358.23,1012.00
1359.73,1018.00
1361.23,999.00
1362.73,1037.00
1364.23,1099.00
1365.73,1232.00
1367.23,1474.00
1368.73,1800.00
1370.22,2080.00
1371.72,2497.00
1373.21,3104.00
1374.71,4343.00
1376.20,6511.00
1377.69,10777.00
1379.18,17918.00
1380.67,26558.00
1382.16,32146.00
1383.65,33629.00
1385.13,32074.00
1386.62,27370.00
1388.10,19091.00
1389.59,10532.00
1391.07,5597.00
1392.55,3319.00
1394.03,2187.00
1395.51,1587.00
1396.99,1249.00
1398.47,1048.00
1399.95,910.00
1401.42,849.00
1402.90,759.00
1404.37,763.00
1405.85,680.00
1407.32,657.00
1408.79,661.00
1410.26,636.00
1411.73,617.00
1413.20,605.00
1414.67,636.00
1416.13,647.00
1417.60,644.00
1419.06,626.00
1420.53,636.00
1421.99,624.00
1423.45,638.00
1424.91,615.00
1426.37,665.00
1427.83,649.00
1429.29,685.00
1430.75,701.00
1432.20,720.00
1433.66,813.00
1435.11,863.00
1436.57,1027.00
1438.02,1198.00
1439.47,1483.00
1440.92,1843.00
1442.37,2218.00
1443.82,2597.00
1445.26,2864.00
1446.71,3015.00
1448.16,3038.00
1449.60,2941.00
1451.05,2781.00
1452.49,2738.00
1453.93,2734.00
1455.37,2973.00
1456.81,3262.00
1458.25,3788.00
1459.69,4427.00
1461.13,5359.00
1462.56,6548.00
1464.00,7332.00
1465.43,7590.00
1466.86,7239.00
1468.30,6422.00
1469.73,5196.00
1471.16,3639.00
1472.59,2389.00
1474.02,1557.00
1475.44,1116.00
1476.87,871.00
1478.30,765.00
1479.72,662.00
1481.14,624.00
1482.57,591.00
1483.99,594.00
1485.41,627.00
1486.83,607.00
1488.25,605.00
1489.67,634.00
1491.08,646.00
1492.50,621.00
1493.92,615.00
1495.33,632.00
1496.74,626.00
1498.16,605.00
1499.57,549.00
1500.98,550.00
1502.39,525.00
1503.80,519.00
1505.20,495.00
1506.61,476.00
1508.02,498.00
1509.42,485.00
1510.82,484.00
1512.23,494.00
1513.63,499.00
1515.03,493.00
1516.43,524.00
1517.83,536.00
1519.23,575.00
1520.63,653.00
1522.02,681.00
1523.42,773.00
1524.81,824.00
1526.20,848.00
1527.60,847.00
1528.99,837.00
1530.38,761.00
1531.77,715.00
1533.16,696.00
1534.55,670.00
1535.93,679.00
1537.32,648.00
1538.70,638.00
1540.09,645.00
1541.47,649.00
1542.85,662.00
1544.23,663.00
1545.61,623.00
1546.99,603.00
1548.37,569.00
1549.75,512.00
1551.12,503.00
1552.50,496.00
1553.87,514.00
1555.25,513.00
1556.62,507.00
1557.99,521.00
1559.36,545.00
1560.73,581.00
1562.10,631.00
1563.47,702.00
1564.84,816.00
1566.20,1006.00
1567.57,1247.00
1568.93,1680.00
1570.29,2208.00
1571.66,2960.00
1573.02,4142.00
1574.38,5842.00
1575.74,7408.00
1577.10,8465.00
1578.45,8795.00
1579.81,8443.00
1581.16,7402.00
1582.52,5775.00
1583.87,3970.00
1585.23,2549.00
1586.58,1749.00
1587.93,1313.00
1589.28,1088.00
1590.63,917.00
1591.98,909.00
1593.32,828.00
1594.67,839.00
1596.01,777.00
1597.36,717.00
1598.70,683.00
1600.04,619.00
1601.39,543.00
1602.73,501.00
1604.07,469.00
1605.40,446.00
1606.74,416.00
1608.08,402.00
1609.41,400.00
1610.75,416.00
1612.08,422.00
1613.42,408.00
1614.75,404.00
1616.08,423.00
1617.41,440.00
1618.74,490.00
1620.07,566.00
1621.39,643.00
1622.72,752.00
1624.04,1010.00
1625.37,1283.00
1626.69,1667.00
1628.02,1985.00
1629.34,2225.00
1630.66,2304.00
1631.98,2194.00
1633.30,1963.00
1634.61,1572.00
1635.93,1203.00
1637.25,907.00
1638.56,736.00
1639.88,613.00
1641.19,513.00
1642.50,418.00
1643.81,427.00
1645.12,368.00
1646.43,357.00
1647.74,338.00
1649.05,369.00
1650.35,357.00
1651.66,353.00
1652.96,333.00
1654.27,306.00
1655.57,323.00
1656.87,335.00
1658.17,342.00
1659.47,353.00
1660.77,340.00
1662.07,355.00
1663.37,355.00
1664.66,351.00
1665.96,361.00
1667.25,355.00
1668.55,366.00
1669.84,355.00
1671.13,360.00
1672.42,341.00
1673.71,355.00
1675.00,355.00
1676.29,355.00
1677.58,358.00
1678.86,365.00
1680.15,351.00
1681.43,368.00
1682.71,357.00
1684.00,344.00
1685.28,334.00
1686.56,319.00
1687.84,312.00
1689.11,340.00
1690.39,312.00
1691.67,291.00
1692.94,289.00
1694.22,329.00
1695.49,314.00
1696.76,308.00
1698.04,298.00
1699.31,291.00
1700.58,311.00
1701.85,309.00
1703.11,296.00
1704.38,302.00
1705.65,298.00
1706.91,281.00
1708.18,289.00
1709.44,289.00
1710.70,274.00
1711.96,282.00
1713.22,279.00
1714.48,296.00
1715.74,289.00
1717.00,292.00
1718.26,279.00
1719.51,268.00
1720.77,279.00
1722.02,286.00
1723.28,272.00
1724.53,257.00
1725.78,261.00
1727.03,264.00
1728.28,246.00
1729.53,270.00
1730.77,258.00
1732.02,258.00
1733.27,271.00
1734.51,257.00
1735.75,254.00
1737.00,252.00
1738.24,243.00
1739.48,241.00
1740.72,259.00
1741.96,260.00
1743.20,267.00
1744.43,262.00
1745.67,263.00
1746.91,260.00
1748.14,246.00
1749.37,272.00
1750.61,275.00
1751.84,262.00
1753.07,247.00
1754.30,280.00
1755.53,264.00
1756.75,291.00
1757.98,269.00
1759.21,285.00
1760.43,283.00
1761.66,260.00
1762.88,286.00
1764.10,295.00
1765.32,252.00
1766.54,266.00
1767.76,245.00
1768.98,235.00
1770.20,279.00
1771.41,253.00
1772.63,251.00
1773.84,237.00
1775.06,222.00
1776.27,251.00
1777.48,243.00
1778.69,243.00
1779.90,243.00
1781.11,209.00
1782.32,234.00
1783.53,235.00
1784.73,227.00
1785.94,224.00
1787.14,234.00
1788.35,215.00
1789.55,218.00
1790.75,239.00
1791.95,241.00
1793.15,239.00
1794.35,230.00
1795.55,212.00
1796.75,211.00
1797.94,245.00
1799.14,230.00
1800.33,226.00
1801.52,222.00
1802.72,212.00
1803.91,211.00
1805.10,237.00
1806.29,234.00
1807.48,230.00
1808.66,226.00
1809.85,221.00
1811.04,212.00
1812.22,207.00
1813.41,238.00
1814.59,207.00
1815.77,216.00
1816.95,211.00
1818.13,213.00
1819.31,222.00
1820.49,215.00
1821.67,219.00
1822.84,227.00
1824.02,202.00
1825.19,230.00
1826.37,216.00
1827.54,214.00
1828.71,193.00
1829.88,208.00
1831.05,189.00
1832.22,208.00
1833.39,200.00
1834.56,199.00
1835.72,212.00
1836.89,214.00
1838.05,195.00
1839.22,193.00
1840.38,207.00
1841.54,181.00
1842.70,179.00
1843.86,203.00
1845.02,182.00
1846.18,180.00
1847.33,214.00
1848.49,187.00
1849.64,188.00
1850.80,173.00
1851.95,189.00
1853.10,189.00
1854.25,201.00
1855.41,193.00
1856.55,193.00
1857.70,181.00
1858.85,219.00
1860.00,201.00
1861.14,185.00
1862.29,205.00
1863.43,216.00
1864.57,181.00
1865.72,195.00
1866.86,198.00
1868.00,196.00
1869.14,176.00
1870.28,195.00
1871.41,188.00
1872.55,199.00
1873.68,197.00
1874.82,199.00
1875.95,206.00
1877.09,200.00
1878.22,199.00
1879.35,188.00
