ENLIGHTEN Version,1.6.8
Measurement ID,20190528-092959-866498-WP-00169
Serial Number,WP-00169
Label,Naphthalene
Integration Time,200
Timestamp,2019-05-28 09:29:59.866498
Note,
Temperature,-99
CCD C0,843.7628784179688
CCD C1,0.150859996676445
CCD C2,-7.925799764052499e-06
CCD C3,-8.2813995661013e-09
CCD Offset,0
CCD Gain,1.9
Laser Wavelength,830.0
Laser Enable,False
Laser Power,100.0
Laser Temperature,-99
Pixel Count,1024

Wavenumber,Processed
196.52,380.00
198.64,453.00
200.76,479.00
202.87,510.00
204.99,549.00
207.10,594.00
209.22,622.00
211.33,618.00
213.44,612.00
215.55,635.00
217.66,655.00
219.77,649.00
221.88,669.00
223.99,647.00
226.09,671.00
228.20,664.00
230.30,679.00
232.40,662.00
234.51,645.00
236.61,664.00
238.71,664.00
240.80,677.00
242.90,652.00
245.00,660.00
247.10,643.00
249.19,639.00
251.28,662.00
253.38,639.00
255.47,633.00
257.56,635.00
259.65,615.00
261.74,586.00
263.83,602.00
265.92,611.00
268.00,597.00
270.09,582.00
272.17,577.00
274.25,563.00
276.34,580.00
278.42,572.00
280.50,550.00
282.58,559.00
284.65,577.00
286.73,565.00
288.81,555.00
290.88,558.00
292.96,586.00
295.03,602.00
297.10,548.00
299.18,567.00
301.25,578.00
303.32,584.00
305.38,563.00
307.45,577.00
309.52,553.00
311.58,576.00
313.65,579.00
315.71,573.00
317.77,557.00
319.84,555.00
321.90,616.00
323.96,580.00
326.01,592.00
328.07,573.00
330.13,611.00
332.18,582.00
334.24,598.00
336.29,598.00
338.35,565.00
340.40,593.00
342.45,575.00
344.50,594.00
346.55,574.00
348.59,571.00
350.64,595.00
352.69,591.00
354.73,586.00
356.78,601.00
358.82,618.00
360.86,628.00
362.90,624.00
364.94,668.00
366.98,717.00
369.02,728.00
371.06,747.00
373.09,761.00
375.13,759.00
377.16,782.00
379.19,789.00
381.23,906.00
383.26,1158.00
385.29,1570.00
387.32,2053.00
389.34,2517.00
391.37,2623.00
393.40,2372.00
395.42,1969.00
397.45,1433.00
399.47,970.00
401.49,763.00
403.51,679.00
405.53,664.00
407.55,656.00
409.57,685.00
411.59,655.00
413.61,664.00
415.62,664.00
417.64,679.00
419.65,634.00
421.66,672.00
423.67,676.00
425.68,641.00
427.69,639.00
429.70,653.00
431.71,626.00
433.71,648.00
435.72,594.00
437.72,638.00
439.73,603.00
441.73,622.00
443.73,582.00
445.73,582.00
447.73,614.00
449.73,607.00
451.73,597.00
453.73,609.00
455.72,613.00
457.72,593.00
459.71,683.00
461.70,798.00
463.69,851.00
465.69,889.00
467.68,897.00
469.66,837.00
471.65,747.00
473.64,680.00
475.62,641.00
477.61,617.00
479.59,605.00
481.58,598.00
483.56,584.00
485.54,603.00
487.52,603.00
489.50,608.00
491.48,587.00
493.45,637.00
495.43,666.00
497.40,696.00
499.38,783.00
501.35,1008.00
503.32,1693.00
505.29,3248.00
507.26,5410.00
509.23,8760.00
511.20,11599.00
513.17,12373.00
515.13,11234.00
517.10,9067.00
519.06,5613.00
521.03,2631.00
522.99,1320.00
524.95,880.00
526.91,728.00
528.87,654.00
530.83,668.00
532.79,596.00
534.74,592.00
536.70,590.00
538.65,588.00
540.61,569.00
542.56,578.00
544.51,570.00
546.46,580.00
548.41,620.00
550.36,607.00
552.30,582.00
554.25,591.00
556.20,586.00
558.14,561.00
560.08,568.00
562.03,565.00
563.97,546.00
565.91,590.00
567.85,581.00
569.79,513.00
571.73,532.00
573.66,538.00
575.60,546.00
577.53,554.00
579.47,538.00
581.40,531.00
583.33,565.00
585.26,529.00
587.19,555.00
589.12,516.00
591.05,537.00
592.97,524.00
594.90,528.00
596.83,535.00
598.75,540.00
600.67,519.00
602.59,577.00
604.51,525.00
606.43,472.00
608.35,531.00
610.27,559.00
612.19,510.00
614.10,518.00
616.02,519.00
617.93,574.00
619.85,560.00
621.76,519.00
623.67,518.00
625.58,521.00
627.49,552.00
629.40,515.00
631.30,502.00
633.21,497.00
635.12,546.00
637.02,560.00
638.92,532.00
640.83,520.00
642.73,535.00
644.63,542.00
646.53,511.00
648.42,506.00
650.32,536.00
652.22,548.00
654.11,550.00
656.01,535.00
657.90,554.00
659.79,544.00
661.68,552.00
663.58,533.00
665.46,553.00
667.35,517.00
669.24,582.00
671.13,552.00
673.01,556.00
674.90,540.00
676.78,544.00
678.66,567.00
680.54,538.00
682.43,544.00
684.31,559.00
686.18,548.00
688.06,561.00
689.94,556.00
691.81,555.00
693.69,584.00
695.56,561.00
697.43,556.00
699.31,575.00
701.18,557.00
703.05,567.00
704.92,541.00
706.78,555.00
708.65,539.00
710.52,575.00
712.38,574.00
714.25,576.00
716.11,565.00
717.97,616.00
719.83,738.00
721.69,887.00
723.55,946.00
725.41,967.00
727.27,961.00
729.12,871.00
730.98,757.00
732.83,714.00
734.68,612.00
736.54,593.00
738.39,618.00
740.24,588.00
742.09,624.00
743.93,623.00
745.78,666.00
747.63,707.00
749.47,797.00
751.32,938.00
753.16,1280.00
755.00,1945.00
756.84,3196.00
758.68,5970.00
760.52,10204.00
762.36,13569.00
764.20,15181.00
766.04,15038.00
767.87,12673.00
769.71,8780.00
771.54,5351.00
773.37,3301.00
775.20,2279.00
777.03,1909.00
778.86,1934.00
780.69,1929.00
782.52,1920.00
784.35,1950.00
786.17,1799.00
788.00,1510.00
789.82,1231.00
791.64,993.00
793.46,795.00
795.28,708.00
797.10,666.00
798.92,607.00
800.74,598.00
802.56,597.00
804.37,571.00
806.19,573.00
808.00,592.00
809.82,565.00
811.63,563.00
813.44,601.00
815.25,590.00
817.06,563.00
818.86,576.00
820.67,576.00
822.48,546.00
824.28,561.00
826.09,578.00
827.89,585.00
829.69,584.00
831.49,599.00
833.29,558.00
835.09,558.00
836.89,527.00
838.69,565.00
840.48,554.00
842.28,513.00
844.07,526.00
845.87,524.00
847.66,532.00
849.45,518.00
851.24,531.00
853.03,508.00
854.82,497.00
856.61,529.00
858.39,473.00
860.18,519.00
861.96,523.00
863.75,525.00
865.53,531.00
867.31,519.00
869.09,568.00
870.87,531.00
872.65,589.00
874.43,527.00
876.20,540.00
877.98,502.00
879.75,532.00
881.53,518.00
883.30,533.00
885.07,540.00
886.84,527.00
888.61,506.00
890.38,485.00
892.15,508.00
893.91,523.00
895.68,487.00
897.44,490.00
899.21,479.00
900.97,527.00
902.73,506.00
904.49,492.00
906.25,529.00
908.01,480.00
909.77,493.00
911.53,517.00
913.28,474.00
915.04,480.00
916.79,500.00
918.55,504.00
920.30,497.00
922.05,493.00
923.80,501.00
925.55,502.00
927.30,477.00
929.05,514.00
930.79,508.00
932.54,550.00
934.28,535.00
936.02,597.00
937.77,611.00
939.51,576.00
941.25,609.00
942.99,654.00
944.73,679.00
946.46,755.00
948.20,822.00
949.94,827.00
951.67,816.00
953.40,804.00
955.14,709.00
956.87,641.00
958.60,580.00
960.33,534.00
962.06,521.00
963.78,559.00
965.51,546.00
967.24,533.00
968.96,521.00
970.69,576.00
972.41,557.00
974.13,605.00
975.85,628.00
977.57,643.00
979.29,677.00
981.01,681.00
982.73,622.00
984.44,622.00
986.16,569.00
987.87,546.00
989.58,506.00
991.30,453.00
993.01,487.00
994.72,496.00
996.43,479.00
998.13,472.00
999.84,502.00
1001.55,518.00
1003.25,550.00
1004.96,538.00
1006.66,578.00
1008.36,639.00
1010.06,742.00
1011.76,1003.00
1013.46,1566.00
1015.16,2740.00
1016.86,4267.00
1018.56,5977.00
1020.25,7342.00
1021.95,7906.00
1023.64,7499.00
1025.33,6382.00
1027.02,4849.00
1028.71,3316.00
1030.40,2198.00
1032.09,1478.00
1033.78,1054.00
1035.47,810.00
1037.15,677.00
1038.84,635.00
1040.52,630.00
1042.20,611.00
1043.89,595.00
1045.57,615.00
1047.25,588.00
1048.93,599.00
1050.60,531.00
1052.28,521.00
1053.96,537.00
1055.63,514.00
1057.31,483.00
1058.98,443.00
1060.65,451.00
1062.32,432.00
1063.99,434.00
1065.66,436.00
1067.33,430.00
1069.00,391.00
1070.66,419.00
1072.33,411.00
1073.99,411.00
1075.66,405.00
1077.32,391.00
1078.98,424.00
1080.64,401.00
1082.30,394.00
1083.96,378.00
1085.62,388.00
1087.27,397.00
1088.93,396.00
1090.58,377.00
1092.24,382.00
1093.89,377.00
1095.54,369.00
1097.19,395.00
1098.84,355.00
1100.49,401.00
1102.14,388.00
1103.79,388.00
1105.43,402.00
1107.08,382.00
1108.72,386.00
1110.36,409.00
1112.01,399.00
1113.65,400.00
1115.29,418.00
1116.93,394.00
1118.56,396.00
1120.20,398.00
1121.84,386.00
1123.47,403.00
1125.11,379.00
1126.74,392.00
1128.37,357.00
1130.00,400.00
1131.63,419.00
1133.26,405.00
1134.89,441.00
1136.52,457.00
1138.14,563.00
1139.77,709.00
1141.39,1008.00
1143.02,1503.00
1144.64,2083.00
1146.26,2448.00
1147.88,2650.00
1149.50,2562.00
1151.12,2243.00
1152.74,1834.00
1154.36,1515.00
1155.97,1259.00
1157.59,1169.00
1159.20,1189.00
1160.81,1282.00
1162.42,1335.00
1164.04,1442.00
1165.65,1628.00
1167.25,1759.00
1168.86,1756.00
1170.47,1697.00
1172.08,1546.00
1173.68,1292.00
1175.28,982.00
1176.89,721.00
1178.49,590.00
1180.09,493.00
1181.69,449.00
1183.29,426.00
1184.89,400.00
1186.49,403.00
1188.08,379.00
1189.68,396.00
1191.27,378.00
1192.87,366.00
1194.46,354.00
1196.05,354.00
1197.64,390.00
1199.23,363.00
1200.82,348.00
1202.41,335.00
1203.99,350.00
1205.58,343.00
1207.16,339.00
1208.75,325.00
1210.33,342.00
1211.91,357.00
1213.49,344.00
1215.07,347.00
1216.65,345.00
1218.23,316.00
1219.81,333.00
1221.38,326.00
1222.96,329.00
1224.53,349.00
1226.11,344.00
1227.68,351.00
1229.25,365.00
1230.82,395.00
1232.39,434.00
1233.96,419.00
1235.52,473.00
1237.09,472.00
1238.66,588.00
1240.22,685.00
1241.78,769.00
1243.35,877.00
1244.91,919.00
1246.47,904.00
1248.03,830.00
1249.59,681.00
1251.14,546.00
1252.70,456.00
1254.26,415.00
1255.81,350.00
1257.36,356.00
1258.92,345.00
1260.47,332.00
1262.02,336.00
1263.57,371.00
1265.12,356.00
1266.67,376.00
1268.21,442.00
1269.76,476.00
1271.31,483.00
1272.85,522.00
1274.39,546.00
1275.93,559.00
1277.48,531.00
1279.02,504.00
1280.56,464.00
1282.09,438.00
1283.63,398.00
1285.17,394.00
1286.70,356.00
1288.24,326.00
1289.77,333.00
1291.30,337.00
1292.84,318.00
1294.37,329.00
1295.90,343.00
1297.42,320.00
1298.95,299.00
1300.48,299.00
1302.00,331.00
1303.53,299.00
1305.05,320.00
1306.58,302.00
1308.10,325.00
1309.62,329.00
1311.14,322.00
1312.66,305.00
1314.18,315.00
1315.69,311.00
1317.21,333.00
1318.72,333.00
1320.24,315.00
1321.75,348.00
1323.26,339.00
1324.78,318.00
1326.29,346.00
1327.80,354.00
1329.30,390.00
1330.81,400.00
1332.32,445.00
1333.82,497.00
1335.33,529.00
1336.83,620.00
1338.33,598.00
1339.84,607.00
1341.34,592.00
1342.84,616.00
1344.34,607.00
1345.83,580.00
1347.33,580.00
1348.83,622.00
1350.32,609.00
1351.82,580.00
1353.31,579.00
1354.80,568.00
1356.29,576.00
1357.78,576.00
1359.27,567.00
1360.76,582.00
1362.25,653.00
1363.73,704.00
1365.22,816.00
1366.70,946.00
1368.19,1109.00
1369.67,1324.00
1371.15,1641.00
1372.63,2241.00
1374.11,3240.00
1375.59,5075.00
1377.07,8106.00
1378.54,11965.00
1380.02,15779.00
1381.49,17876.00
1382.97,18515.00
1384.44,17483.00
1385.91,14800.00
1387.38,11094.00
1388.85,7760.00
1390.32,5159.00
1391.79,3364.00
1393.26,2151.00
1394.72,1381.00
1396.19,990.00
1397.65,698.00
1399.12,571.00
1400.58,523.00
1402.04,442.00
1403.50,417.00
1404.96,363.00
1406.42,363.00
1407.88,363.00
1409.33,344.00
1410.79,357.00
1412.24,321.00
1413.70,323.00
1415.15,327.00
1416.60,359.00
1418.05,331.00
1419.50,326.00
1420.95,327.00
1422.40,320.00
1423.84,346.00
1425.29,346.00
1426.74,339.00
1428.18,369.00
1429.62,383.00
1431.06,420.00
1432.51,451.00
1433.95,502.00
1435.39,633.00
1436.82,743.00
1438.26,894.00
1439.70,1065.00
1441.13,1353.00
1442.57,1547.00
1444.00,1742.00
1445.43,1828.00
1446.86,1884.00
1448.30,1868.00
1449.72,1901.00
1451.15,1818.00
1452.58,1897.00
1454.01,1958.00
1455.43,2190.00
1456.86,2412.00
1458.28,2859.00
1459.71,3332.00
1461.13,3951.00
1462.55,4376.00
1463.97,4674.00
1465.39,4577.00
1466.81,4227.00
1468.22,3614.00
1469.64,2895.00
1471.06,2197.00
1472.47,1647.00
1473.88,1181.00
1475.30,858.00
1476.71,647.00
1478.12,491.00
1479.53,388.00
1480.94,363.00
1482.34,346.00
1483.75,323.00
1485.16,312.00
1486.56,324.00
1487.96,344.00
1489.37,306.00
1490.77,310.00
1492.17,319.00
1493.57,307.00
1494.97,316.00
1496.37,295.00
1497.76,266.00
1499.16,265.00
1500.56,276.00
1501.95,251.00
1503.34,270.00
1504.74,245.00
1506.13,251.00
1507.52,245.00
1508.91,215.00
1510.30,232.00
1511.68,230.00
1513.07,234.00
1514.46,258.00
1515.84,257.00
1517.22,265.00
1518.61,291.00
1519.99,314.00
1521.37,352.00
1522.75,362.00
1524.13,398.00
1525.51,392.00
1526.88,417.00
1528.26,371.00
1529.63,375.00
1531.01,371.00
1532.38,355.00
1533.75,331.00
1535.13,321.00
1536.50,326.00
1537.87,320.00
1539.23,320.00
1540.60,314.00
1541.97,302.00
1543.33,306.00
1544.70,298.00
1546.06,280.00
1547.42,257.00
1548.79,239.00
1550.15,275.00
1551.51,274.00
1552.87,238.00
1554.22,241.00
1555.58,239.00
1556.94,280.00
1558.29,258.00
1559.65,283.00
1561.00,320.00
1562.35,358.00
1563.70,413.00
1565.05,517.00
1566.40,649.00
1567.75,827.00
1569.10,1133.00
1570.45,1498.00
1571.79,1943.00
1573.14,2536.00
1574.48,3133.00
1575.82,3517.00
1577.16,3708.00
1578.50,3610.00
1579.84,3299.00
1581.18,2866.00
1582.52,2279.00
1583.86,1811.00
1585.19,1384.00
1586.53,1105.00
1587.86,839.00
1589.20,672.00
1590.53,542.00
1591.86,527.00
1593.19,478.00
1594.52,415.00
1595.85,374.00
1597.18,371.00
1598.50,347.00
1599.83,297.00
1601.15,276.00
1602.48,247.00
1603.80,242.00
1605.12,232.00
1606.44,215.00
1607.76,206.00
1609.08,190.00
1610.40,210.00
1611.72,203.00
1613.03,194.00
1614.35,220.00
1615.66,243.00
1616.97,254.00
1618.29,289.00
1619.60,350.00
1620.91,407.00
1622.22,492.00
1623.53,639.00
1624.83,824.00
1626.14,967.00
1627.45,1087.00
1628.75,1201.00
1630.05,1134.00
1631.36,1107.00
1632.66,1026.00
1633.96,865.00
1635.26,719.00
1636.56,601.00
1637.86,485.00
1639.15,396.00
1640.45,322.00
1641.74,266.00
1643.04,245.00
1644.33,208.00
1645.62,197.00
1646.92,162.00
1648.21,169.00
1649.50,177.00
1650.78,160.00
1652.07,158.00
1653.36,149.00
1654.64,164.00
1655.93,150.00
1657.21,166.00
1658.50,164.00
1659.78,158.00
1661.06,160.00
1662.34,165.00
1663.62,165.00
1664.90,165.00
1666.17,171.00
1667.45,166.00
1668.72,164.00
1670.00,173.00
1671.27,156.00
1672.54,168.00
1673.82,166.00
1675.09,187.00
1676.36,169.00
1677.62,179.00
1678.89,171.00
1680.16,177.00
1681.42,165.00
1682.69,160.00
1683.95,149.00
1685.22,154.00
1686.48,147.00
1687.74,144.00
1689.00,148.00
1690.26,133.00
1691.52,137.00
1692.77,148.00
1694.03,139.00
1695.28,137.00
1696.54,132.00
1697.79,141.00
1699.04,144.00
1700.30,118.00
1701.55,131.00
1702.80,140.00
1704.04,141.00
1705.29,140.00
1706.54,123.00
1707.78,124.00
1709.03,138.00
1710.27,129.00
1711.52,130.00
1712.76,118.00
1714.00,143.00
1715.24,148.00
1716.48,121.00
1717.72,122.00
1718.95,116.00
1720.19,111.00
1721.43,121.00
1722.66,119.00
1723.89,106.00
1725.13,118.00
1726.36,116.00
1727.59,95.00
1728.82,105.00
1730.05,110.00
1731.28,126.00
1732.50,116.00
1733.73,109.00
1734.95,106.00
1736.18,111.00
1737.40,118.00
1738.62,112.00
1739.84,127.00
1741.06,101.00
1742.28,123.00
1743.50,124.00
1744.72,114.00
1745.94,119.00
1747.15,101.00
1748.37,114.00
1749.58,120.00
1750.79,120.00
1752.00,112.00
1753.21,128.00
1754.42,126.00
1755.63,124.00
1756.84,112.00
1758.05,122.00
1759.25,131.00
1760.46,120.00
1761.66,114.00
1762.87,100.00
1764.07,128.00
1765.27,115.00
1766.47,107.00
1767.67,114.00
1768.87,118.00
1770.07,120.00
1771.26,107.00
1772.46,108.00
1773.65,117.00
1774.85,120.00
1776.04,117.00
1777.23,105.00
1778.42,87.00
1779.61,116.00
1780.80,114.00
1781.99,97.00
1783.18,99.00
1784.36,86.00
1785.55,105.00
1786.73,124.00
1787.92,94.00
1789.10,116.00
1790.28,116.00
1791.46,105.00
1792.64,103.00
1793.82,116.00
1795.00,93.00
1796.17,101.00
1797.35,114.00
1798.52,83.00
1799.70,99.00
1800.87,111.00
1802.04,118.00
1803.21,104.00
1804.38,110.00
1805.55,108.00
1806.72,114.00
1807.89,126.00
1809.05,95.00
1810.22,93.00
1811.38,124.00
1812.55,109.00
1813.71,105.00
1814.87,106.00
1816.03,99.00
1817.19,99.00
1818.35,104.00
1819.51,91.00
1820.67,93.00
1821.82,97.00
1822.98,107.00
1824.13,84.00
1825.28,89.00
1826.44,88.00
1827.59,84.00
1828.74,99.00
1829.89,83.00
1831.04,88.00
1832.18,101.00
1833.33,99.00
1834.48,93.00
1835.62,91.00
1836.76,88.00
1837.91,82.00
1839.05,93.00
1840.19,80.00
1841.33,83.00
1842.47,91.00
1843.61,81.00
1844.74,91.00
1845.88,87.00
1847.01,72.00
1848.15,94.00
1849.28,99.00
1850.41,72.00
1851.55,61.00
1852.68,83.00
1853.81,74.00
