ENLIGHTEN Version,1.6.8
Measurement ID,20190528-080900-146090-WP-00341
Serial Number,WP-00341
Label,Sodium Perchlorate
Integration Time,200
Timestamp,2019-05-28 08:09:00.146090
Note,
Temperature,-99
CCD C0,801.1921997070312
CCD C1,0.14250999689102173
CCD C2,-6.432900136132957e-06
CCD C3,-8.346599855713066e-09
CCD Offset,0
CCD Gain,1.9
Laser Wavelength,785.0
Laser Enable,False
Laser Power,100.0
Laser Temperature,-99
Pixel Count,1024

Wavenumber,Processed
257.45,0.00
259.67,4.00
261.89,2.00
264.11,17.00
266.33,-15.00
268.54,-10.00
270.76,-2.00
272.97,4.00
275.18,2.00
277.39,12.00
279.61,7.00
281.82,-9.00
284.02,-6.00
286.23,-2.00
288.44,-8.00
290.64,16.00
292.85,-2.00
295.05,21.00
297.26,21.00
299.46,29.00
301.66,40.00
303.86,57.00
306.06,66.00
308.25,78.00
310.45,99.00
312.65,107.00
314.84,116.00
317.04,144.00
319.23,152.00
321.42,160.00
323.61,180.00
325.80,167.00
327.99,168.00
330.18,184.00
332.36,192.00
334.55,177.00
336.73,196.00
338.92,208.00
341.10,194.00
343.28,171.00
345.46,224.00
347.64,183.00
349.82,215.00
352.00,179.00
354.18,217.00
356.35,202.00
358.53,223.00
360.70,215.00
362.88,192.00
365.05,213.00
367.22,201.00
369.39,223.00
371.56,206.00
373.72,211.00
375.89,220.00
378.06,222.00
380.22,219.00
382.39,217.00
384.55,222.00
386.71,214.00
388.87,236.00
391.03,225.00
393.19,213.00
395.35,241.00
397.51,234.00
399.66,217.00
401.82,213.00
403.97,209.00
406.12,253.00
408.28,227.00
410.43,255.00
412.58,248.00
414.73,211.00
416.87,228.00
419.02,245.00
421.17,245.00
423.31,232.00
425.46,246.00
427.60,238.00
429.74,276.00
431.88,238.00
434.02,251.00
436.16,266.00
438.30,270.00
440.44,327.00
442.57,318.00
444.71,430.00
446.84,542.00
448.97,925.00
451.11,1606.00
453.24,2737.00
455.37,4182.00
457.50,5718.00
459.62,7182.00
461.75,8028.00
463.88,7602.00
466.00,6451.00
468.12,4737.00
470.25,2960.00
472.37,1573.00
474.49,864.00
476.61,577.00
478.73,468.00
480.85,392.00
482.96,407.00
485.08,343.00
487.20,352.00
489.31,345.00
491.42,312.00
493.53,318.00
495.64,316.00
497.75,342.00
499.86,341.00
501.97,319.00
504.08,316.00
506.18,325.00
508.29,335.00
510.39,318.00
512.50,350.00
514.60,349.00
516.70,346.00
518.80,372.00
520.90,365.00
523.00,352.00
525.09,409.00
527.19,385.00
529.28,392.00
531.38,384.00
533.47,384.00
535.56,362.00
537.65,373.00
539.74,364.00
541.83,403.00
543.92,387.00
546.01,344.00
548.09,373.00
550.18,377.00
552.26,371.00
554.34,387.00
556.42,394.00
558.51,396.00
560.59,415.00
562.66,399.00
564.74,418.00
566.82,426.00
568.89,399.00
570.97,371.00
573.04,378.00
575.12,388.00
577.19,371.00
579.26,359.00
581.33,339.00
583.40,350.00
585.46,359.00
587.53,350.00
589.60,362.00
591.66,371.00
593.73,385.00
595.79,350.00
597.85,359.00
599.91,365.00
601.97,356.00
604.03,356.00
606.09,374.00
608.14,424.00
610.20,398.00
612.25,485.00
614.31,613.00
616.36,952.00
618.41,1463.00
620.46,2444.00
622.51,3598.00
624.56,4838.00
626.61,5903.00
628.65,6574.00
630.70,6565.00
632.74,6186.00
634.79,5401.00
636.83,4663.00
638.87,3927.00
640.91,3210.00
642.95,2416.00
644.99,1670.00
647.03,1067.00
649.06,605.00
651.10,390.00
653.13,287.00
655.17,248.00
657.20,239.00
659.23,219.00
661.26,213.00
663.29,205.00
665.32,205.00
667.35,234.00
669.37,202.00
671.40,223.00
673.42,234.00
675.45,236.00
677.47,234.00
679.49,215.00
681.51,245.00
683.53,207.00
685.55,244.00
687.57,236.00
689.58,236.00
691.60,242.00
693.61,213.00
695.62,270.00
697.64,230.00
699.65,257.00
701.66,253.00
703.67,267.00
705.68,241.00
707.68,268.00
709.69,249.00
711.69,238.00
713.70,255.00
715.70,260.00
717.70,246.00
719.70,251.00
721.71,261.00
723.70,249.00
725.70,232.00
727.70,266.00
729.70,272.00
731.69,234.00
733.68,242.00
735.68,269.00
737.67,262.00
739.66,210.00
741.65,244.00
743.64,217.00
745.63,238.00
747.61,238.00
749.60,211.00
751.59,234.00
753.57,226.00
755.55,207.00
757.53,194.00
759.52,225.00
761.50,227.00
763.47,194.00
765.45,200.00
767.43,239.00
769.41,216.00
771.38,190.00
773.35,231.00
775.33,218.00
777.30,203.00
779.27,190.00
781.24,188.00
783.21,170.00
785.18,194.00
787.14,209.00
789.11,222.00
791.07,192.00
793.04,196.00
795.00,211.00
796.96,205.00
798.92,206.00
800.88,221.00
802.84,198.00
804.80,192.00
806.75,204.00
808.71,217.00
810.67,213.00
812.62,236.00
814.57,217.00
816.52,203.00
818.47,207.00
820.42,211.00
822.37,198.00
824.32,207.00
826.27,215.00
828.21,194.00
830.16,190.00
832.10,205.00
834.04,219.00
835.98,240.00
837.92,230.00
839.86,209.00
841.80,197.00
843.74,175.00
845.68,194.00
847.61,215.00
849.55,209.00
851.48,200.00
853.41,204.00
855.34,236.00
857.27,212.00
859.20,202.00
861.13,212.00
863.06,227.00
864.98,236.00
866.91,239.00
868.83,236.00
870.76,226.00
872.68,245.00
874.60,206.00
876.52,238.00
878.44,233.00
880.36,258.00
882.27,229.00
884.19,279.00
886.11,272.00
888.02,282.00
889.93,251.00
891.85,257.00
893.76,269.00
895.67,291.00
897.58,265.00
899.48,319.00
901.39,332.00
903.30,397.00
905.20,422.00
907.11,527.00
909.01,650.00
910.91,959.00
912.81,1368.00
914.71,2026.00
916.61,2832.00
918.51,3695.00
920.41,4402.00
922.30,4965.00
924.20,5408.00
926.09,5853.00
927.98,6255.00
929.87,7071.00
931.77,8669.00
933.66,11741.00
935.54,16722.00
937.43,21594.00
939.32,24889.00
941.20,25579.00
943.09,23141.00
944.97,17519.00
946.86,11361.00
948.74,6279.00
950.62,2942.00
952.50,1382.00
954.38,862.00
956.25,636.00
958.13,521.00
960.01,472.00
961.88,428.00
963.75,371.00
965.63,362.00
967.50,369.00
969.37,331.00
971.24,338.00
973.11,342.00
974.97,325.00
976.84,297.00
978.71,293.00
980.57,318.00
982.43,312.00
984.30,329.00
986.16,306.00
988.02,284.00
989.88,287.00
991.74,310.00
993.59,291.00
995.45,277.00
997.31,285.00
999.16,289.00
1001.01,276.00
1002.87,295.00
1004.72,314.00
1006.57,295.00
1008.42,306.00
1010.26,276.00
1012.11,287.00
1013.96,276.00
1015.80,306.00
1017.65,287.00
1019.49,283.00
1021.33,308.00
1023.17,293.00
1025.01,293.00
1026.85,314.00
1028.69,285.00
1030.53,287.00
1032.36,289.00
1034.20,317.00
1036.03,295.00
1037.87,306.00
1039.70,322.00
1041.53,312.00
1043.36,325.00
1045.19,295.00
1047.02,337.00
1048.84,306.00
1050.67,350.00
1052.49,340.00
1054.32,326.00
1056.14,373.00
1057.96,377.00
1059.78,407.00
1061.60,435.00
1063.42,476.00
1065.24,525.00
1067.06,521.00
1068.87,647.00
1070.69,755.00
1072.50,835.00
1074.31,997.00
1076.13,1214.00
1077.94,1495.00
1079.75,1823.00
1081.55,2197.00
1083.36,2494.00
1085.17,2750.00
1086.97,2759.00
1088.78,2574.00
1090.58,2197.00
1092.39,1775.00
1094.19,1351.00
1095.99,1090.00
1097.79,860.00
1099.59,708.00
1101.38,662.00
1103.18,643.00
1104.97,685.00
1106.77,799.00
1108.56,920.00
1110.36,1128.00
1112.15,1365.00
1113.94,1739.00
1115.73,2119.00
1117.51,2610.00
1119.30,2985.00
1121.09,3300.00
1122.87,3409.00
1124.66,3293.00
1126.44,2993.00
1128.22,2428.00
1130.01,1912.00
1131.79,1433.00
1133.56,1063.00
1135.34,835.00
1137.12,704.00
1138.90,669.00
1140.67,660.00
1142.45,651.00
1144.22,653.00
1145.99,643.00
1147.76,586.00
1149.53,561.00
1151.30,518.00
1153.07,489.00
1154.84,435.00
1156.60,441.00
1158.37,388.00
1160.13,422.00
1161.90,381.00
1163.66,370.00
1165.42,399.00
1167.18,368.00
1168.94,394.00
1170.70,369.00
1172.45,363.00
1174.21,390.00
1175.96,375.00
1177.72,365.00
1179.47,392.00
1181.22,356.00
1182.97,363.00
1184.72,354.00
1186.47,354.00
1188.22,363.00
1189.97,350.00
1191.71,356.00
1193.46,369.00
1195.20,371.00
1196.94,357.00
1198.69,373.00
1200.43,367.00
1202.17,367.00
1203.90,383.00
1205.64,339.00
1207.38,365.00
1209.11,361.00
1210.85,391.00
1212.58,365.00
1214.32,348.00
1216.05,357.00
1217.78,365.00
1219.51,373.00
1221.24,371.00
1222.96,349.00
1224.69,370.00
1226.42,394.00
1228.14,376.00
1229.86,350.00
1231.59,376.00
1233.31,388.00
1235.03,376.00
1236.75,361.00
1238.47,407.00
1240.18,354.00
1241.90,373.00
1243.62,371.00
1245.33,400.00
1247.04,396.00
1248.76,439.00
1250.47,379.00
1252.18,404.00
1253.89,414.00
1255.60,462.00
1257.30,409.00
1259.01,432.00
1260.71,416.00
1262.42,422.00
1264.12,452.00
1265.82,432.00
1267.52,435.00
1269.23,415.00
1270.92,452.00
1272.62,455.00
1274.32,457.00
1276.02,422.00
1277.71,461.00
1279.41,501.00
1281.10,456.00
1282.79,504.00
1284.48,479.00
1286.17,479.00
1287.86,491.00
1289.55,500.00
1291.24,472.00
1292.92,487.00
1294.61,502.00
1296.29,537.00
1297.97,494.00
1299.66,502.00
1301.34,515.00
1303.02,527.00
1304.70,567.00
1306.37,500.00
1308.05,547.00
1309.73,529.00
1311.40,563.00
1313.08,539.00
1314.75,528.00
1316.42,555.00
1318.09,557.00
1319.76,563.00
1321.43,569.00
1323.10,563.00
1324.76,572.00
1326.43,558.00
1328.09,600.00
1329.76,591.00
1331.42,624.00
1333.08,584.00
1334.74,624.00
1336.40,579.00
1338.06,584.00
1339.72,574.00
1341.38,615.00
1343.03,611.00
1344.69,607.00
1346.34,580.00
1347.99,573.00
1349.64,586.00
1351.30,620.00
1352.95,620.00
1354.59,650.00
1356.24,609.00
1357.89,611.00
1359.53,610.00
1361.18,591.00
1362.82,590.00
1364.46,629.00
1366.11,645.00
1367.75,605.00
1369.39,584.00
1371.02,631.00
1372.66,604.00
1374.30,624.00
1375.93,626.00
1377.57,617.00
1379.20,575.00
1380.83,632.00
1382.46,607.00
1384.10,609.00
1385.72,620.00
1387.35,629.00
1388.98,624.00
1390.61,603.00
1392.23,590.00
1393.86,592.00
1395.48,576.00
1397.10,629.00
1398.72,632.00
1400.34,600.00
1401.96,609.00
1403.58,591.00
1405.20,550.00
1406.81,603.00
1408.43,574.00
1410.04,604.00
1411.66,616.00
1413.27,614.00
1414.88,581.00
1416.49,584.00
1418.10,605.00
1419.71,605.00
1421.31,538.00
1422.92,573.00
1424.53,573.00
1426.13,586.00
1427.73,567.00
1429.33,572.00
1430.94,605.00
1432.54,552.00
1434.14,570.00
1435.73,578.00
1437.33,529.00
1438.93,601.00
1440.52,533.00
1442.11,582.00
1443.71,559.00
1445.30,559.00
1446.89,551.00
1448.48,595.00
1450.07,542.00
1451.66,599.00
1453.24,542.00
1454.83,565.00
1456.42,598.00
1458.00,555.00
1459.58,563.00
1461.16,580.00
1462.74,590.00
1464.32,576.00
1465.90,525.00
1467.48,557.00
1469.06,542.00
1470.63,600.00
1472.21,593.00
1473.78,571.00
1475.36,594.00
1476.93,577.00
1478.50,592.00
1480.07,563.00
1481.64,555.00
1483.20,556.00
1484.77,573.00
1486.34,559.00
1487.90,586.00
1489.46,557.00
1491.03,567.00
1492.59,605.00
1494.15,571.00
1495.71,572.00
1497.27,597.00
1498.83,570.00
1500.38,595.00
1501.94,609.00
1503.49,582.00
1505.05,576.00
1506.60,567.00
1508.15,597.00
1509.70,567.00
1511.25,563.00
1512.80,588.00
1514.35,582.00
1515.89,523.00
1517.44,569.00
1518.98,569.00
1520.53,603.00
1522.07,567.00
1523.61,570.00
1525.15,552.00
1526.69,553.00
1528.23,581.00
1529.77,584.00
1531.30,592.00
1532.84,570.00
1534.37,609.00
1535.90,561.00
1537.44,594.00
1538.97,580.00
1540.50,595.00
1542.03,583.00
1543.56,575.00
1545.08,589.00
1546.61,542.00
1548.14,535.00
1549.66,563.00
1551.18,570.00
1552.71,527.00
1554.23,541.00
1555.75,579.00
1557.27,553.00
1558.78,545.00
1560.30,549.00
1561.82,541.00
1563.33,557.00
1564.85,540.00
1566.36,573.00
1567.87,540.00
1569.38,559.00
1570.89,544.00
1572.40,542.00
1573.91,518.00
1575.42,527.00
1576.92,542.00
1578.43,536.00
1579.93,583.00
1581.44,508.00
1582.94,516.00
1584.44,558.00
1585.94,510.00
1587.44,525.00
1588.94,517.00
1590.43,548.00
1591.93,537.00
1593.43,491.00
1594.92,492.00
1596.41,510.00
1597.91,508.00
1599.40,498.00
1600.89,521.00
1602.38,500.00
1603.86,501.00
1605.35,504.00
1606.84,491.00
1608.32,560.00
1609.81,504.00
1611.29,476.00
1612.77,495.00
1614.25,523.00
1615.73,483.00
1617.21,490.00
1618.69,449.00
1620.16,521.00
1621.64,476.00
1623.12,481.00
1624.59,489.00
1626.06,504.00
1627.53,482.00
1629.01,491.00
1630.48,521.00
1631.94,510.00
1633.41,529.00
1634.88,500.00
1636.34,477.00
1637.81,481.00
1639.27,457.00
1640.74,474.00
1642.20,489.00
1643.66,483.00
1645.12,475.00
1646.58,493.00
1648.04,491.00
1649.49,445.00
1650.95,483.00
1652.40,472.00
1653.86,489.00
1655.31,481.00
1656.76,461.00
1658.21,458.00
1659.66,484.00
1661.11,456.00
1662.56,458.00
1664.00,442.00
1665.45,483.00
1666.89,467.00
1668.34,464.00
1669.78,447.00
1671.22,455.00
1672.66,490.00
1674.10,449.00
1675.54,457.00
1676.98,462.00
1678.42,446.00
1679.85,418.00
1681.29,453.00
1682.72,457.00
1684.15,447.00
1685.58,415.00
1687.01,459.00
1688.44,466.00
1689.87,434.00
1691.30,433.00
1692.73,433.00
1694.15,463.00
1695.58,430.00
1697.00,453.00
1698.42,445.00
1699.84,453.00
1701.27,436.00
1702.69,439.00
1704.10,426.00
1705.52,416.00
1706.94,421.00
1708.35,396.00
1709.77,423.00
1711.18,420.00
1712.59,421.00
1714.01,405.00
1715.42,441.00
1716.83,419.00
1718.23,426.00
1719.64,437.00
1721.05,409.00
1722.45,380.00
1723.86,399.00
1725.26,428.00
1726.66,390.00
1728.06,410.00
1729.47,410.00
1730.86,390.00
1732.26,373.00
1733.66,394.00
1735.06,357.00
1736.45,395.00
1737.85,398.00
1739.24,373.00
1740.63,374.00
1742.02,378.00
1743.41,394.00
1744.80,371.00
1746.19,397.00
1747.58,366.00
1748.97,352.00
1750.35,384.00
1751.74,349.00
1753.12,380.00
1754.50,346.00
1755.88,346.00
1757.26,367.00
1758.64,362.00
1760.02,364.00
1761.40,371.00
1762.77,356.00
1764.15,361.00
1765.52,379.00
1766.90,360.00
1768.27,348.00
1769.64,323.00
1771.01,376.00
1772.38,350.00
1773.75,319.00
1775.12,346.00
1776.48,336.00
1777.85,347.00
1779.21,343.00
1780.57,325.00
1781.94,341.00
1783.30,339.00
1784.66,345.00
1786.02,361.00
1787.38,348.00
1788.73,337.00
1790.09,329.00
1791.44,329.00
1792.80,319.00
1794.15,341.00
1795.50,319.00
1796.86,331.00
1798.21,336.00
1799.55,327.00
1800.90,304.00
1802.25,356.00
1803.60,299.00
1804.94,342.00
1806.29,295.00
1807.63,339.00
1808.97,316.00
1810.31,322.00
1811.65,315.00
1812.99,329.00
1814.33,293.00
1815.67,328.00
1817.00,294.00
1818.34,316.00
1819.67,348.00
1821.01,314.00
1822.34,291.00
1823.67,286.00
1825.00,308.00
1826.33,324.00
1827.66,285.00
1828.98,318.00
1830.31,321.00
1831.63,302.00
1832.96,300.00
1834.28,308.00
1835.60,277.00
1836.92,290.00
1838.24,298.00
1839.56,295.00
1840.88,328.00
1842.20,287.00
1843.51,268.00
1844.83,314.00
1846.14,316.00
1847.46,293.00
1848.77,289.00
1850.08,289.00
1851.39,268.00
1852.70,260.00
1854.01,293.00
1855.31,293.00
1856.62,299.00
1857.92,262.00
1859.23,249.00
1860.53,281.00
1861.83,281.00
1863.13,282.00
1864.43,274.00
1865.73,262.00
1867.03,310.00
1868.33,274.00
1869.62,291.00
1870.92,297.00
1872.21,295.00
1873.51,272.00
1874.80,274.00
1876.09,265.00
1877.38,255.00
1878.67,281.00
1879.96,288.00
1881.24,286.00
1882.53,285.00
1883.81,247.00
1885.10,238.00
1886.38,264.00
1887.66,255.00
1888.94,232.00
1890.22,270.00
1891.50,243.00
1892.78,232.00
1894.06,251.00
1895.33,248.00
1896.61,259.00
1897.88,234.00
1899.16,256.00
1900.43,257.00
1901.70,232.00
1902.97,238.00
1904.24,259.00
1905.51,236.00
1906.77,258.00
1908.04,235.00
1909.30,240.00
1910.57,257.00
1911.83,245.00
1913.09,244.00
1914.35,249.00
1915.61,226.00
1916.87,231.00
1918.13,222.00
1919.39,234.00
1920.64,238.00
1921.90,232.00
1923.15,226.00
1924.40,217.00
1925.66,228.00
1926.91,213.00
1928.16,232.00
1929.40,227.00
1930.65,221.00
1931.90,219.00
1933.15,223.00
1934.39,203.00
1935.63,225.00
1936.88,218.00
1938.12,207.00
1939.36,199.00
1940.60,200.00
1941.84,232.00
1943.08,200.00
1944.31,223.00
1945.55,217.00
1946.78,195.00
1948.02,183.00
1949.25,190.00
1950.48,207.00
1951.71,188.00
1952.94,189.00
1954.17,217.00
1955.40,175.00
1956.63,202.00
1957.85,194.00
1959.08,191.00
1960.30,192.00
1961.52,203.00
1962.74,185.00
1963.97,187.00
1965.18,209.00
1966.40,173.00
1967.62,179.00
1968.84,160.00
1970.05,175.00
1971.27,168.00
1972.48,179.00
1973.70,181.00
1974.91,181.00
1976.12,174.00
1977.33,181.00
1978.54,194.00
1979.74,177.00
1980.95,171.00
1982.16,171.00
1983.36,154.00
1984.56,190.00
1985.77,154.00
1986.97,158.00
1988.17,173.00
1989.37,159.00
1990.57,152.00
1991.77,156.00
1992.96,160.00
1994.16,163.00
1995.35,154.00
1996.55,150.00
1997.74,156.00
1998.93,150.00
2000.12,156.00
2001.31,166.00
