ENLIGHTEN Version,1.6.8
Measurement ID,20190528-093854-572303-WP-00204
Serial Number,WP-00204
Label,Sucrose
Integration Time,2000
Timestamp,2019-05-28 09:38:54.572303
Note,
Temperature,-99
CCD C0,640.9744873046875
CCD C1,0.11524999886751175
CCD C2,-5.4810998335597105e-06
CCD C3,-6.335299840287689e-09
CCD Offset,0
CCD Gain,1.9
Laser Wavelength,633.0
Laser Enable,False
Laser Power,100.0
Laser Temperature,-99
Pixel Count,1024

Wavenumber,Processed
196.54,327.00
199.35,293.00
202.15,286.00
204.95,285.00
207.75,286.00
210.55,295.00
213.35,321.00
216.15,335.00
218.94,350.00
221.74,386.00
224.53,426.00
227.32,385.00
230.11,371.00
232.90,373.00
235.69,314.00
238.48,305.00
241.26,342.00
244.05,295.00
246.83,327.00
249.61,320.00
252.39,347.00
255.17,344.00
257.95,333.00
260.72,278.00
263.50,302.00
266.27,301.00
269.05,280.00
271.82,314.00
274.59,338.00
277.36,381.00
280.12,352.00
282.89,369.00
285.66,380.00
288.42,354.00
291.18,356.00
293.94,352.00
296.70,363.00
299.46,373.00
302.22,381.00
304.97,373.00
307.73,375.00
310.48,359.00
313.23,371.00
315.99,322.00
318.73,303.00
321.48,359.00
324.23,295.00
326.98,293.00
329.72,319.00
332.46,287.00
335.21,351.00
337.95,342.00
340.69,360.00
343.42,331.00
346.16,374.00
348.90,371.00
351.63,375.00
354.36,362.00
357.10,401.00
359.83,447.00
362.55,441.00
365.28,358.00
368.01,397.00
370.73,396.00
373.46,356.00
376.18,379.00
378.90,339.00
381.62,375.00
384.34,399.00
387.06,409.00
389.78,470.00
392.49,578.00
395.20,658.00
397.92,759.00
400.63,669.00
403.34,523.00
406.05,453.00
408.75,418.00
411.46,430.00
414.16,455.00
416.87,432.00
419.57,399.00
422.27,361.00
424.97,356.00
427.67,392.00
430.37,390.00
433.06,430.00
435.76,475.00
438.45,515.00
441.14,529.00
443.83,407.00
446.52,388.00
449.21,365.00
451.90,372.00
454.58,346.00
457.27,353.00
459.95,369.00
462.63,363.00
465.31,362.00
467.99,383.00
470.67,371.00
473.35,362.00
476.02,343.00
478.70,390.00
481.37,391.00
484.04,375.00
486.71,384.00
489.38,390.00
492.05,419.00
494.71,420.00
497.38,384.00
500.04,386.00
502.70,414.00
505.37,390.00
508.03,390.00
510.68,401.00
513.34,478.00
516.00,460.00
518.65,576.00
521.31,689.00
523.96,626.00
526.61,606.00
529.26,575.00
531.91,597.00
534.55,624.00
537.20,595.00
539.84,593.00
542.49,618.00
545.13,615.00
547.77,611.00
550.41,610.00
553.05,597.00
555.68,485.00
558.32,463.00
560.95,445.00
563.59,454.00
566.22,449.00
568.85,407.00
571.48,398.00
574.11,400.00
576.73,462.00
579.36,474.00
581.98,511.00
584.61,460.00
587.23,424.00
589.85,402.00
592.47,409.00
595.08,380.00
597.70,380.00
600.31,409.00
602.93,365.00
605.54,396.00
608.15,387.00
610.76,386.00
613.37,409.00
615.98,404.00
618.58,404.00
621.19,424.00
623.79,425.00
626.39,437.00
629.00,485.00
631.59,519.00
634.19,579.00
636.79,573.00
639.39,592.00
641.98,521.00
644.57,492.00
647.17,449.00
649.76,456.00
652.35,400.00
654.93,398.00
657.52,427.00
660.11,359.00
662.69,373.00
665.27,354.00
667.85,392.00
670.43,409.00
673.01,407.00
675.59,441.00
678.17,455.00
680.74,407.00
683.32,424.00
685.89,419.00
688.46,417.00
691.03,449.00
693.60,447.00
696.17,434.00
698.73,451.00
701.30,436.00
703.86,415.00
706.43,414.00
708.99,430.00
711.55,443.00
714.10,414.00
716.66,428.00
719.22,438.00
721.77,424.00
724.33,406.00
726.88,426.00
729.43,502.00
731.98,484.00
734.53,457.00
737.07,475.00
739.62,462.00
742.16,457.00
744.71,424.00
747.25,418.00
749.79,402.00
752.33,420.00
754.87,441.00
757.40,421.00
759.94,400.00
762.47,400.00
765.01,384.00
767.54,413.00
770.07,409.00
772.60,417.00
775.12,428.00
777.65,416.00
780.18,409.00
782.70,390.00
785.22,422.00
787.74,420.00
790.26,416.00
792.78,406.00
795.30,435.00
797.82,424.00
800.33,401.00
802.84,404.00
805.36,439.00
807.87,417.00
810.38,415.00
812.89,398.00
815.39,409.00
817.90,423.00
820.40,409.00
822.91,418.00
825.41,426.00
827.91,413.00
830.41,463.00
832.91,460.00
835.40,491.00
837.90,557.00
840.39,659.00
842.89,864.00
845.38,1053.00
847.87,981.00
850.36,692.00
852.85,569.00
855.33,521.00
857.82,519.00
860.30,508.00
862.79,519.00
865.27,572.00
867.75,535.00
870.23,530.00
872.70,520.00
875.18,500.00
877.66,466.00
880.13,461.00
882.60,449.00
885.07,444.00
887.54,418.00
890.01,428.00
892.48,441.00
894.95,456.00
897.41,442.00
899.87,487.00
902.34,485.00
904.80,544.00
907.26,588.00
909.72,553.00
912.17,555.00
914.63,603.00
917.08,633.00
919.54,643.00
921.99,578.00
924.44,521.00
926.89,501.00
929.34,460.00
931.78,485.00
934.23,511.00
936.67,523.00
939.12,557.00
941.56,540.00
944.00,483.00
946.44,447.00
948.88,453.00
951.31,441.00
953.75,455.00
956.18,439.00
958.61,422.00
961.05,430.00
963.48,436.00
965.91,396.00
968.33,426.00
970.76,422.00
973.18,420.00
975.61,453.00
978.03,443.00
980.45,460.00
982.87,409.00
985.29,492.00
987.71,462.00
990.12,451.00
992.54,458.00
994.95,464.00
997.36,486.00
999.78,512.00
1002.19,508.00
1004.59,549.00
1007.00,586.00
1009.41,589.00
1011.81,590.00
1014.21,539.00
1016.62,537.00
1019.02,508.00
1021.42,504.00
1023.82,479.00
1026.21,506.00
1028.61,590.00
1031.00,753.00
1033.39,877.00
1035.79,833.00
1038.18,770.00
1040.57,707.00
1042.95,669.00
1045.34,632.00
1047.73,579.00
1050.11,603.00
1052.49,562.00
1054.87,535.00
1057.25,521.00
1059.63,521.00
1062.01,548.00
1064.39,578.00
1066.76,540.00
1069.14,576.00
1071.51,586.00
1073.88,601.00
1076.25,622.00
1078.62,612.00
1080.99,653.00
1083.35,651.00
1085.72,643.00
1088.08,637.00
1090.44,563.00
1092.80,580.00
1095.16,550.00
1097.52,612.00
1099.88,645.00
1102.24,647.00
1104.59,593.00
1106.94,607.00
1109.30,605.00
1111.65,654.00
1114.00,770.00
1116.34,792.00
1118.69,847.00
1121.04,929.00
1123.38,894.00
1125.72,827.00
1128.07,774.00
1130.41,694.00
1132.75,613.00
1135.08,563.00
1137.42,532.00
1139.76,493.00
1142.09,485.00
1144.42,502.00
1146.76,472.00
1149.09,502.00
1151.41,530.00
1153.74,567.00
1156.07,664.00
1158.39,633.00
1160.72,615.00
1163.04,546.00
1165.36,561.00
1167.68,577.00
1170.00,581.00
1172.32,530.00
1174.63,479.00
1176.95,510.00
1179.26,435.00
1181.58,427.00
1183.89,431.00
1186.20,487.00
1188.51,473.00
1190.81,457.00
1193.12,468.00
1195.42,480.00
1197.73,493.00
1200.03,494.00
1202.33,489.00
1204.63,520.00
1206.93,518.00
1209.23,521.00
1211.52,521.00
1213.82,510.00
1216.11,447.00
1218.40,539.00
1220.69,472.00
1222.98,525.00
1225.27,555.00
1227.56,586.00
1229.84,632.00
1232.13,666.00
1234.41,700.00
1236.69,709.00
1238.97,653.00
1241.25,599.00
1243.53,542.00
1245.80,521.00
1248.08,479.00
1250.35,510.00
1252.63,498.00
1254.90,542.00
1257.17,531.00
1259.44,540.00
1261.71,546.00
1263.97,531.00
1266.24,504.00
1268.50,508.00
1270.76,504.00
1273.03,511.00
1275.29,529.00
1277.54,485.00
1279.80,494.00
1282.06,478.00
1284.31,464.00
1286.57,474.00
1288.82,443.00
1291.07,462.00
1293.32,441.00
1295.57,470.00
1297.82,489.00
1300.06,504.00
1302.31,442.00
1304.55,477.00
1306.79,472.00
1309.03,483.00
1311.27,470.00
1313.51,492.00
1315.75,510.00
1317.98,517.00
1320.22,575.00
1322.45,568.00
1324.68,563.00
1326.91,546.00
1329.14,533.00
1331.37,521.00
1333.60,527.00
1335.82,567.00
1338.05,555.00
1340.27,621.00
1342.49,641.00
1344.71,717.00
1346.93,657.00
1349.15,584.00
1351.37,597.00
1353.58,567.00
1355.80,570.00
1358.01,605.00
1360.22,611.00
1362.43,666.00
1364.64,666.00
1366.85,618.00
1369.06,597.00
1371.26,599.00
1373.47,635.00
1375.67,626.00
1377.87,589.00
1380.07,546.00
1382.27,541.00
1384.47,533.00
1386.66,514.00
1388.86,561.00
1391.05,512.00
1393.24,491.00
1395.44,455.00
1397.63,497.00
1399.81,508.00
1402.00,529.00
1404.19,559.00
1406.37,548.00
1408.56,563.00
1410.74,528.00
1412.92,552.00
1415.10,561.00
1417.28,549.00
1419.46,593.00
1421.63,568.00
1423.81,542.00
1425.98,575.00
1428.15,535.00
1430.32,530.00
1432.49,575.00
1434.66,549.00
1436.83,523.00
1438.99,549.00
1441.16,537.00
1443.32,519.00
1445.48,516.00
1447.64,584.00
1449.80,577.00
1451.96,641.00
1454.12,717.00
1456.27,815.00
1458.43,877.00
1460.58,814.00
1462.73,664.00
1464.88,597.00
1467.03,563.00
1469.18,561.00
1471.33,559.00
1473.47,533.00
1475.62,489.00
1477.76,468.00
1479.90,459.00
1482.04,430.00
1484.18,392.00
1486.32,431.00
1488.46,396.00
1490.59,399.00
1492.73,407.00
1494.86,430.00
1496.99,438.00
1499.12,430.00
1501.25,377.00
1503.38,396.00
1505.50,405.00
1507.63,413.00
1509.75,396.00
1511.88,428.00
1514.00,386.00
1516.12,409.00
1518.24,397.00
1520.35,428.00
1522.47,394.00
1524.59,423.00
1526.70,377.00
1528.81,415.00
1530.92,409.00
1533.03,429.00
1535.14,424.00
1537.25,415.00
1539.36,411.00
1541.46,377.00
1543.56,379.00
1545.67,432.00
1547.77,413.00
1549.87,400.00
1551.97,407.00
1554.06,415.00
1556.16,390.00
1558.25,378.00
1560.35,421.00
1562.44,384.00
1564.53,396.00
1566.62,413.00
1568.71,418.00
1570.80,391.00
1572.88,384.00
1574.97,432.00
1577.05,367.00
1579.13,404.00
1581.21,393.00
1583.29,409.00
1585.37,417.00
1587.45,388.00
1589.52,426.00
1591.60,400.00
1593.67,388.00
1595.74,394.00
1597.81,390.00
1599.88,386.00
1601.95,420.00
1604.02,380.00
1606.08,411.00
1608.15,369.00
1610.21,380.00
1612.27,367.00
1614.33,390.00
1616.39,419.00
1618.45,382.00
1620.51,390.00
1622.56,382.00
1624.62,375.00
1626.67,393.00
1628.72,420.00
1630.77,407.00
1632.82,417.00
1634.87,379.00
1636.92,390.00
1638.96,379.00
1641.01,400.00
1643.05,386.00
1645.09,383.00
1647.13,382.00
1649.17,433.00
1651.21,407.00
1653.25,380.00
1655.28,379.00
1657.32,401.00
1659.35,400.00
1661.38,409.00
1663.41,392.00
1665.44,392.00
1667.47,364.00
1669.49,371.00
1671.52,417.00
1673.54,390.00
1675.56,378.00
1677.59,388.00
1679.61,389.00
1681.63,360.00
1683.64,362.00
1685.66,354.00
1687.67,384.00
1689.69,371.00
1691.70,365.00
1693.71,375.00
1695.72,379.00
1697.73,364.00
1699.74,381.00
1701.75,382.00
1703.75,407.00
1705.75,400.00
1707.76,390.00
1709.76,391.00
1711.76,363.00
1713.76,371.00
1715.75,379.00
1717.75,388.00
1719.74,408.00
1721.74,373.00
1723.73,363.00
1725.72,388.00
1727.71,382.00
1729.70,396.00
1731.69,371.00
1733.67,371.00
1735.66,354.00
1737.64,381.00
1739.62,369.00
1741.61,367.00
1743.59,357.00
1745.56,365.00
1747.54,396.00
1749.52,369.00
1751.49,381.00
1753.47,365.00
1755.44,358.00
1757.41,348.00
1759.38,337.00
1761.35,360.00
1763.31,390.00
1765.28,360.00
1767.25,392.00
1769.21,365.00
1771.17,360.00
1773.13,384.00
1775.09,361.00
1777.05,375.00
1779.01,369.00
1780.96,488.00
1782.92,341.00
1784.87,408.00
1786.82,339.00
1788.77,361.00
1790.72,377.00
1792.67,367.00
1794.62,335.00
1796.56,364.00
1798.51,382.00
1800.45,356.00
1802.39,381.00
1804.34,386.00
1806.28,350.00
1808.21,333.00
1810.15,369.00
1812.09,362.00
1814.02,350.00
1815.95,338.00
1817.89,350.00
1819.82,384.00
1821.75,360.00
1823.67,356.00
1825.60,341.00
1827.53,354.00
1829.45,343.00
1831.37,348.00
1833.30,383.00
1835.22,345.00
1837.14,335.00
1839.06,342.00
1840.97,341.00
1842.89,350.00
1844.80,367.00
1846.72,355.00
1848.63,360.00
1850.54,348.00
1852.45,327.00
1854.36,375.00
1856.26,369.00
1858.17,381.00
1860.07,375.00
1861.98,367.00
1863.88,349.00
1865.78,346.00
1867.68,328.00
1869.58,342.00
1871.47,331.00
1873.37,368.00
1875.26,333.00
1877.15,352.00
1879.05,348.00
1880.94,357.00
1882.83,318.00
1884.71,342.00
1886.60,364.00
1888.49,361.00
1890.37,326.00
1892.25,321.00
1894.14,363.00
1896.02,349.00
1897.90,306.00
1899.77,331.00
1901.65,338.00
1903.53,348.00
1905.40,369.00
1907.27,361.00
1909.15,331.00
1911.02,340.00
1912.89,327.00
1914.75,305.00
1916.62,352.00
1918.49,331.00
1920.35,327.00
1922.21,331.00
1924.07,331.00
1925.93,316.00
1927.79,350.00
1929.65,303.00
1931.51,322.00
1933.36,338.00
1935.22,327.00
1937.07,323.00
1938.92,359.00
1940.77,346.00
1942.62,312.00
1944.47,323.00
1946.32,344.00
1948.16,339.00
1950.01,342.00
1951.85,340.00
1953.69,339.00
1955.53,305.00
1957.37,329.00
1959.21,318.00
1961.05,300.00
1962.88,310.00
1964.72,339.00
1966.55,333.00
1968.38,308.00
1970.21,331.00
1972.04,325.00
1973.87,318.00
1975.69,325.00
1977.52,308.00
1979.34,339.00
1981.17,342.00
1982.99,352.00
1984.81,326.00
1986.63,324.00
1988.45,323.00
1990.26,331.00
1992.08,305.00
1993.89,310.00
1995.71,276.00
1997.52,327.00
1999.33,333.00
2001.14,269.00
2002.95,319.00
2004.75,308.00
2006.56,329.00
2008.36,291.00
2010.16,307.00
2011.97,308.00
2013.77,292.00
2015.57,325.00
2017.36,325.00
2019.16,272.00
2020.96,336.00
2022.75,316.00
2024.54,337.00
2026.33,339.00
2028.13,316.00
2029.91,302.00
2031.70,318.00
2033.49,284.00
2035.27,296.00
2037.06,293.00
2038.84,297.00
2040.62,312.00
2042.40,314.00
2044.18,264.00
2045.96,327.00
2047.74,291.00
2049.51,301.00
2051.29,335.00
2053.06,308.00
2054.83,308.00
2056.60,296.00
2058.37,286.00
2060.14,312.00
2061.91,287.00
2063.67,293.00
2065.44,291.00
2067.20,301.00
2068.96,318.00
2070.72,306.00
2072.48,293.00
2074.24,295.00
2076.00,310.00
2077.75,331.00
2079.51,319.00
2081.26,276.00
2083.01,306.00
2084.76,295.00
2086.51,285.00
2088.26,297.00
2090.01,308.00
2091.75,255.00
2093.50,291.00
2095.24,304.00
2096.98,301.00
2098.72,285.00
2100.46,326.00
2102.20,306.00
2103.94,301.00
2105.67,286.00
2107.41,305.00
2109.14,301.00
2110.87,313.00
2112.60,293.00
2114.33,327.00
2116.06,297.00
2117.79,261.00
2119.51,293.00
2121.24,284.00
2122.96,272.00
2124.68,291.00
2126.40,296.00
2128.12,298.00
2129.84,287.00
2131.56,282.00
2133.27,257.00
2134.99,281.00
2136.70,296.00
2138.41,299.00
2140.12,291.00
2141.83,287.00
2143.54,288.00
2145.25,272.00
2146.95,278.00
2148.66,243.00
2150.36,293.00
2152.06,293.00
2153.76,244.00
2155.46,276.00
2157.16,268.00
2158.86,267.00
2160.55,276.00
2162.25,293.00
2163.94,292.00
2165.63,285.00
2167.32,280.00
2169.01,293.00
2170.70,247.00
2172.39,260.00
2174.08,274.00
2175.76,274.00
2177.44,289.00
2179.13,238.00
2180.81,255.00
2182.49,272.00
2184.16,299.00
2185.84,268.00
2187.52,301.00
2189.19,276.00
2190.87,264.00
2192.54,270.00
2194.21,278.00
2195.88,283.00
2197.55,280.00
2199.21,284.00
2200.88,273.00
2202.54,253.00
2204.21,252.00
2205.87,264.00
2207.53,265.00
2209.19,293.00
2210.85,257.00
2212.51,266.00
2214.16,218.00
2215.82,280.00
2217.47,276.00
2219.12,293.00
2220.77,257.00
2222.42,270.00
2224.07,222.00
2225.72,237.00
2227.37,238.00
2229.01,243.00
2230.65,252.00
2232.30,264.00
2233.94,259.00
2235.58,280.00
2237.22,244.00
2238.85,230.00
2240.49,260.00
2242.13,263.00
2243.76,230.00
2245.39,253.00
2247.02,268.00
2248.65,236.00
2250.28,278.00
2251.91,270.00
2253.54,255.00
2255.16,295.00
2256.78,245.00
2258.41,263.00
2260.03,259.00
2261.65,257.00
2263.27,258.00
2264.88,217.00
2266.50,211.00
2268.12,245.00
2269.73,230.00
2271.34,268.00
2272.95,232.00
2274.56,230.00
2276.17,264.00
2277.78,253.00
2279.39,232.00
2280.99,232.00
2282.60,236.00
2284.20,245.00
2285.80,261.00
2287.40,251.00
2289.00,243.00
2290.60,244.00
2292.19,247.00
2293.79,257.00
2295.38,222.00
2296.98,245.00
2298.57,262.00
2300.16,242.00
2301.75,234.00
2303.34,239.00
2304.92,203.00
2306.51,236.00
2308.09,222.00
2309.67,259.00
2311.26,223.00
2312.84,239.00
2314.42,240.00
2315.99,262.00
2317.57,240.00
2319.15,241.00
2320.72,248.00
2322.29,225.00
2323.86,226.00
2325.44,247.00
2327.00,227.00
2328.57,209.00
2330.14,249.00
2331.71,256.00
2333.27,242.00
2334.83,229.00
2336.39,226.00
2337.95,219.00
2339.51,234.00
2341.07,226.00
2342.63,251.00
2344.19,259.00
2345.74,225.00
2347.29,234.00
2348.84,213.00
2350.40,224.00
2351.94,245.00
2353.49,250.00
2355.04,255.00
2356.59,251.00
2358.13,222.00
2359.67,244.00
2361.22,205.00
2362.76,242.00
2364.30,202.00
2365.83,251.00
2367.37,232.00
2368.91,215.00
2370.44,221.00
2371.98,217.00
2373.51,207.00
2375.04,227.00
2376.57,227.00
2378.10,238.00
2379.62,219.00
2381.15,222.00
2382.68,218.00
2384.20,215.00
2385.72,193.00
2387.24,230.00
2388.76,213.00
2390.28,232.00
2391.80,205.00
2393.31,219.00
2394.83,194.00
2396.34,215.00
2397.85,232.00
2399.37,231.00
