ENLIGHTEN Version,1.6.8
Measurement ID,20190528-111022-544310-WP-00357
Serial Number,WP-00357
Label,Sulfur
Integration Time,1
Timestamp,2019-05-28 11:10:22.544310
Note,
Temperature,-99
CCD C0,801.1829833984375
CCD C1,0.12474799901247025
CCD C2,-2.2862799596623518e-05
CCD C3,4.907460215974879e-09
CCD Offset,0
CCD Gain,1.9
Laser Wavelength,785.0
Laser Enable,False
Laser Power,100.0
Laser Temperature,-99
Pixel Count,1952

Wavenumber,Processed
257.31,0.00
259.25,0.00
261.19,0.00
263.13,-1023.00
265.07,-281.00
267.01,680.00
268.95,-117.00
270.88,-554.00
272.82,-247.00
274.75,91.00
276.68,-21.00
278.61,-193.00
280.54,288.00
282.46,66.00
284.39,-584.00
286.31,-138.00
288.24,-534.00
290.16,-384.00
292.08,-17.00
294.00,-181.00
295.92,-820.00
297.83,320.00
299.75,-551.00
301.66,496.00
303.58,-208.00
305.49,-17.00
307.40,-328.00
309.31,96.00
311.22,-341.00
313.12,-450.00
315.03,-574.00
316.93,341.00
318.83,-544.00
320.73,111.00
322.63,-43.00
324.53,-449.00
326.43,690.00
328.33,390.00
330.22,1009.00
332.12,964.00
334.01,-347.00
335.90,-653.00
337.79,-311.00
339.68,-455.00
341.57,-467.00
343.45,-344.00
345.34,-295.00
347.22,905.00
349.10,371.00
350.98,677.00
352.86,668.00
354.74,73.00
356.62,-152.00
358.50,1064.00
360.37,996.00
362.24,1193.00
364.12,529.00
365.99,1606.00
367.86,1473.00
369.73,1906.00
371.59,1832.00
373.46,2683.00
375.33,2609.00
377.19,3474.00
379.05,3354.00
380.91,5222.00
382.77,5037.00
384.63,6624.00
386.49,5932.00
388.35,9659.00
390.20,8694.00
392.06,10752.00
393.91,9930.00
395.76,12316.00
397.61,11221.00
399.46,12924.00
401.31,13040.00
403.15,14007.00
405.00,14118.00
406.84,17775.00
408.69,16759.00
410.53,18477.00
412.37,18649.00
414.21,21073.00
416.05,21786.00
417.88,23196.00
419.72,24749.00
421.55,27398.00
423.39,30006.00
425.22,30668.00
427.05,30717.00
428.88,38418.00
430.71,35395.00
432.54,41894.00
434.36,41992.00
436.19,47618.00
438.01,44942.00
439.83,46538.00
441.65,43458.00
443.48,42785.00
445.29,39661.00
447.11,43247.00
448.93,41687.00
450.74,44918.00
452.56,44266.00
454.37,53346.00
456.18,53949.00
457.99,60171.00
459.80,60500.00
461.61,60377.00
463.42,60740.00
465.23,60676.00
467.03,60316.00
468.83,61037.00
470.64,60675.00
472.44,60430.00
474.24,60804.00
476.04,60479.00
477.84,60849.00
479.63,60591.00
481.43,60126.00
483.22,60420.00
485.02,60507.00
486.81,60262.00
488.60,57471.00
490.39,51565.00
492.18,42773.00
493.96,37427.00
495.75,32454.00
497.54,28686.00
499.32,24134.00
501.10,23087.00
502.88,20209.00
504.67,18193.00
506.45,17274.00
508.22,16432.00
510.00,14480.00
511.78,13910.00
513.55,13136.00
515.33,13085.00
517.10,13082.00
518.87,13734.00
520.64,12152.00
522.41,12596.00
524.18,11195.00
525.94,12089.00
527.71,10725.00
529.47,11518.00
531.24,11036.00
533.00,13459.00
534.76,11519.00
536.52,11335.00
538.28,12059.00
540.04,12854.00
541.80,12269.00
543.55,11925.00
545.31,11970.00
547.06,11735.00
548.81,11328.00
550.56,11521.00
552.31,11368.00
554.06,11331.00
555.81,12074.00
557.56,11904.00
559.30,11643.00
561.05,11905.00
562.79,11816.00
564.53,11916.00
566.28,9937.00
568.02,12194.00
569.75,10687.00
571.49,11526.00
573.23,10226.00
574.97,11065.00
576.70,11228.00
578.43,10697.00
580.17,10218.00
581.90,10090.00
583.63,10200.00
585.36,11284.00
587.09,9983.00
588.81,11996.00
590.54,9829.00
592.26,10379.00
593.99,10472.00
595.71,11285.00
597.43,10685.00
599.15,10796.00
600.87,10041.00
602.59,11335.00
604.31,10680.00
606.02,11014.00
607.74,11209.00
609.45,11799.00
611.17,11476.00
612.88,11012.00
614.59,11629.00
616.30,11755.00
618.01,9914.00
619.71,13151.00
621.42,11381.00
623.13,11860.00
624.83,10746.00
626.53,11081.00
628.24,11172.00
629.94,12167.00
631.64,11900.00
633.34,11503.00
635.04,12245.00
636.73,11074.00
638.43,11162.00
640.12,12664.00
641.82,10505.00
643.51,12626.00
645.20,11993.00
646.89,11140.00
648.58,10888.00
650.27,11037.00
651.96,11730.00
653.65,11128.00
655.33,11366.00
657.02,11553.00
658.70,9990.00
660.38,12241.00
662.06,11185.00
663.74,10196.00
665.42,11485.00
667.10,10716.00
668.78,12987.00
670.45,11171.00
672.13,11521.00
673.80,12353.00
675.48,11168.00
677.15,11356.00
678.82,10772.00
680.49,11993.00
682.16,11285.00
683.83,10557.00
685.49,10243.00
687.16,11172.00
688.82,11100.00
690.49,11281.00
692.15,10867.00
693.81,10719.00
695.47,10498.00
697.13,10437.00
698.79,10971.00
700.45,11260.00
702.11,11126.00
703.76,10772.00
705.42,10236.00
707.07,10114.00
708.72,11544.00
710.37,9593.00
712.02,10741.00
713.67,10953.00
715.32,9255.00
716.97,10129.00
718.62,10614.00
720.26,10465.00
721.91,11133.00
723.55,9794.00
725.19,9830.00
726.84,9990.00
728.48,9883.00
730.12,10406.00
731.75,9686.00
733.39,8806.00
735.03,10019.00
736.66,9296.00
738.30,9348.00
739.93,9245.00
741.57,9100.00
743.20,8562.00
744.83,9686.00
746.46,8966.00
748.09,9148.00
749.71,10413.00
751.34,9600.00
752.97,8815.00
754.59,9439.00
756.22,9303.00
757.84,8811.00
759.46,10260.00
761.08,9492.00
762.70,9150.00
764.32,9915.00
765.94,8673.00
767.56,9213.00
769.17,9323.00
770.79,7643.00
772.40,9560.00
774.01,8901.00
775.63,8973.00
777.24,9719.00
778.85,7983.00
780.46,8739.00
782.07,9758.00
783.67,9335.00
785.28,10105.00
786.88,9834.00
788.49,9535.00
790.09,8685.00
791.70,10065.00
793.30,8927.00
794.90,9386.00
796.50,8598.00
798.10,9173.00
799.69,8879.00
801.29,9982.00
802.89,9855.00
804.48,10017.00
806.08,9066.00
807.67,10584.00
809.26,10012.00
810.85,9033.00
812.44,9287.00
814.03,10553.00
815.62,10279.00
817.21,10493.00
818.79,10092.00
820.38,11545.00
821.96,10351.00
823.55,10126.00
825.13,11715.00
826.71,11588.00
828.29,11635.00
829.87,10636.00
831.45,10405.00
833.03,12055.00
834.61,9739.00
836.18,11206.00
837.76,11339.00
839.33,11505.00
840.91,12004.00
842.48,10909.00
844.05,10569.00
845.62,11747.00
847.19,11030.00
848.76,10703.00
850.33,12455.00
851.90,11600.00
853.46,11944.00
855.03,13134.00
856.59,12690.00
858.15,12034.00
859.72,12346.00
861.28,12347.00
862.84,12422.00
864.40,14709.00
865.96,12662.00
867.52,13544.00
869.07,12551.00
870.63,12845.00
872.18,13029.00
873.74,14481.00
875.29,14133.00
876.84,14472.00
878.40,13443.00
879.95,13662.00
881.50,13788.00
883.04,12978.00
884.59,13374.00
886.14,13334.00
887.69,12965.00
889.23,14127.00
890.78,12978.00
892.32,11625.00
893.86,11273.00
895.40,11685.00
896.94,11426.00
898.48,13037.00
900.02,11923.00
901.56,11618.00
903.10,10515.00
904.63,10801.00
906.17,11295.00
907.70,12502.00
909.24,11847.00
910.77,12100.00
912.30,10114.00
913.83,12397.00
915.36,11308.00
916.89,11688.00
918.42,12495.00
919.95,12129.00
921.48,10619.00
923.00,11116.00
924.53,10759.00
926.05,13028.00
927.57,11924.00
929.10,12449.00
930.62,11073.00
932.14,12691.00
933.66,10988.00
935.18,11599.00
936.70,11724.00
938.21,11207.00
939.73,11450.00
941.24,12405.00
942.76,11015.00
944.27,11983.00
945.79,10992.00
947.30,12540.00
948.81,11432.00
950.32,11110.00
951.83,10243.00
953.34,10476.00
954.84,10607.00
956.35,10754.00
957.86,11013.00
959.36,11891.00
960.87,10225.00
962.37,11047.00
963.87,11387.00
965.37,10139.00
966.88,10177.00
968.38,11607.00
969.87,9197.00
971.37,10723.00
972.87,10755.00
974.37,10541.00
975.86,9819.00
977.36,10077.00
978.85,11527.00
980.35,9697.00
981.84,10591.00
983.33,10081.00
984.82,9777.00
986.31,9598.00
987.80,9329.00
989.29,10252.00
990.77,9544.00
992.26,9767.00
993.75,10096.00
995.23,9592.00
996.72,10104.00
998.20,8753.00
999.68,10517.00
1001.16,9361.00
1002.64,9414.00
1004.12,9508.00
1005.60,9169.00
1007.08,8539.00
1008.56,8530.00
1010.04,9259.00
1011.51,9240.00
1012.99,9271.00
1014.46,7992.00
1015.93,9356.00
1017.41,8742.00
1018.88,9422.00
1020.35,8395.00
1021.82,9236.00
1023.29,8442.00
1024.76,9356.00
1026.23,9106.00
1027.69,8153.00
1029.16,7690.00
1030.62,8643.00
1032.09,8307.00
1033.55,9117.00
1035.02,8442.00
1036.48,8859.00
1037.94,7850.00
1039.40,8910.00
1040.86,8353.00
1042.32,7851.00
1043.78,7892.00
1045.23,7694.00
1046.69,8733.00
1048.15,8479.00
1049.60,8485.00
1051.05,8234.00
1052.51,8022.00
1053.96,7352.00
1055.41,7816.00
1056.86,8391.00
1058.31,8263.00
1059.76,7132.00
1061.21,8209.00
1062.66,8113.00
1064.10,7453.00
1065.55,9139.00
1067.00,7806.00
1068.44,6990.00
1069.88,7421.00
1071.33,9098.00
1072.77,7875.00
1074.21,7523.00
1075.65,7400.00
1077.09,8227.00
1078.53,7718.00
1079.97,8460.00
1081.41,7818.00
1082.84,8099.00
1084.28,7835.00
1085.71,8526.00
1087.15,8048.00
1088.58,8836.00
1090.02,7011.00
1091.45,8422.00
1092.88,8159.00
1094.31,7729.00
1095.74,7994.00
1097.17,8223.00
1098.60,8792.00
1100.02,8067.00
1101.45,9202.00
1102.88,8169.00
1104.30,6595.00
1105.73,7425.00
1107.15,7889.00
1108.57,7515.00
1109.99,7284.00
1111.42,8909.00
1112.84,9020.00
1114.26,8558.00
1115.68,7574.00
1117.09,8645.00
1118.51,7985.00
1119.93,7722.00
1121.34,8448.00
1122.76,9090.00
1124.17,7537.00
1125.59,7567.00
1127.00,7482.00
1128.41,9594.00
1129.82,8668.00
1131.24,8076.00
1132.65,7913.00
1134.05,9273.00
1135.46,7820.00
1136.87,9167.00
1138.28,8321.00
1139.68,8638.00
1141.09,8400.00
1142.50,8967.00
1143.90,9351.00
1145.30,8947.00
1146.71,8182.00
1148.11,8159.00
1149.51,8781.00
1150.91,8878.00
1152.31,8441.00
1153.71,8452.00
1155.11,9387.00
1156.50,9675.00
1157.90,9277.00
1159.30,9357.00
1160.69,8681.00
1162.08,9005.00
1163.48,9274.00
1164.87,9088.00
1166.26,8809.00
1167.66,9542.00
1169.05,8020.00
1170.44,9180.00
1171.83,8488.00
1173.21,9136.00
1174.60,8715.00
1175.99,9580.00
1177.38,7662.00
1178.76,9806.00
1180.15,9313.00
1181.53,10032.00
1182.92,10047.00
1184.30,9292.00
1185.68,7995.00
1187.06,8859.00
1188.44,9912.00
1189.82,8524.00
1191.20,8625.00
1192.58,9868.00
1193.96,8480.00
1195.34,9734.00
1196.71,9591.00
1198.09,9376.00
1199.46,8144.00
1200.84,9026.00
1202.21,8592.00
1203.58,9120.00
1204.96,9037.00
1206.33,9195.00
1207.70,7728.00
1209.07,9220.00
1210.44,9939.00
1211.81,9149.00
1213.17,8329.00
1214.54,9128.00
1215.91,9623.00
1217.27,9241.00
1218.64,9702.00
1220.00,9351.00
1221.37,8993.00
1222.73,9309.00
1224.09,9587.00
1225.45,9177.00
1226.82,10988.00
1228.18,9643.00
1229.54,8407.00
1230.89,9539.00
1232.25,9025.00
1233.61,9090.00
1234.97,9021.00
1236.32,9745.00
1237.68,9549.00
1239.03,8539.00
1240.39,8825.00
1241.74,9691.00
1243.09,9441.00
1244.45,8750.00
1245.80,8380.00
1247.15,7615.00
1248.50,8492.00
1249.85,8952.00
1251.20,7665.00
1252.54,8788.00
1253.89,8209.00
1255.24,7593.00
1256.58,10228.00
1257.93,7966.00
1259.27,7507.00
1260.62,8586.00
1261.96,7809.00
1263.30,8176.00
1264.64,8246.00
1265.98,7704.00
1267.33,7938.00
1268.67,7724.00
1270.00,7308.00
1271.34,8750.00
1272.68,8349.00
1274.02,8711.00
1275.35,7492.00
1276.69,7595.00
1278.03,7672.00
1279.36,6718.00
1280.69,8474.00
1282.03,8246.00
1283.36,7671.00
1284.69,7408.00
1286.02,7080.00
1287.35,7251.00
1288.68,6901.00
1290.01,7389.00
1291.34,6007.00
1292.67,6815.00
1294.00,8091.00
1295.32,7838.00
1296.65,6973.00
1297.97,7272.00
1299.30,7347.00
1300.62,6843.00
1301.94,7177.00
1303.27,6889.00
1304.59,6485.00
1305.91,8356.00
1307.23,7423.00
1308.55,7153.00
1309.87,7207.00
1311.19,6997.00
1312.51,6820.00
1313.82,7768.00
1315.14,6829.00
1316.46,6738.00
1317.77,7298.00
1319.09,6371.00
1320.40,6263.00
1321.72,5830.00
1323.03,5753.00
1324.34,6763.00
1325.65,6910.00
1326.96,6378.00
1328.27,6218.00
1329.58,5437.00
1330.89,6874.00
1332.20,7151.00
1333.51,6555.00
1334.82,6139.00
1336.12,5785.00
1337.43,6174.00
1338.73,5635.00
1340.04,6536.00
1341.34,6064.00
1342.65,7133.00
1343.95,6501.00
1345.25,6831.00
1346.55,6605.00
1347.85,5318.00
1349.15,6572.00
1350.45,6375.00
1351.75,5878.00
1353.05,7524.00
1354.35,6188.00
1355.65,6265.00
1356.94,6051.00
1358.24,7834.00
1359.53,7188.00
1360.83,6230.00
1362.12,6403.00
1363.42,7070.00
1364.71,5804.00
1366.00,5389.00
1367.29,6928.00
1368.58,6053.00
1369.87,6451.00
1371.16,5964.00
1372.45,6538.00
1373.74,6442.00
1375.03,6557.00
1376.32,6084.00
1377.60,6662.00
1378.89,6057.00
1380.17,5990.00
1381.46,5714.00
1382.74,6008.00
1384.03,6211.00
1385.31,5817.00
1386.59,6160.00
1387.87,7309.00
1389.15,5930.00
1390.43,6619.00
1391.71,6451.00
1392.99,6496.00
1394.27,7304.00
1395.55,7576.00
1396.83,8201.00
1398.11,6138.00
1399.38,5533.00
1400.66,6179.00
1401.93,7102.00
1403.21,7002.00
1404.48,6933.00
1405.75,6408.00
1407.03,6820.00
1408.30,7082.00
1409.57,6381.00
1410.84,6065.00
1412.11,6767.00
1413.38,6855.00
1414.65,6449.00
1415.92,6004.00
1417.19,6461.00
1418.46,5235.00
1419.72,7064.00
1420.99,7449.00
1422.25,5500.00
1423.52,6800.00
1424.78,6245.00
1426.05,7242.00
1427.31,6700.00
1428.57,6093.00
1429.84,7768.00
1431.10,5507.00
1432.36,5777.00
1433.62,5787.00
1434.88,5861.00
1436.14,7427.00
1437.40,6541.00
1438.65,7151.00
1439.91,8515.00
1441.17,7162.00
1442.43,6945.00
1443.68,7807.00
1444.94,7569.00
1446.19,7246.00
1447.44,6936.00
1448.70,7569.00
1449.95,7063.00
1451.20,6370.00
1452.46,6805.00
1453.71,6411.00
1454.96,7497.00
1456.21,7629.00
1457.46,6529.00
1458.71,6999.00
1459.95,7214.00
1461.20,7751.00
1462.45,7462.00
1463.70,7290.00
1464.94,7072.00
1466.19,6912.00
1467.43,7069.00
1468.68,6864.00
1469.92,6097.00
1471.16,6907.00
1472.41,7192.00
1473.65,7012.00
1474.89,6979.00
1476.13,6528.00
1477.37,7081.00
1478.61,7886.00
1479.85,7274.00
1481.09,7856.00
1482.33,7080.00
1483.57,6243.00
1484.80,7384.00
1486.04,7039.00
1487.28,6995.00
1488.51,7347.00
1489.75,7333.00
1490.98,6486.00
1492.21,7311.00
1493.45,7129.00
1494.68,7717.00
1495.91,7269.00
1497.14,7125.00
1498.37,6370.00
1499.61,7505.00
1500.84,7295.00
1502.06,7017.00
1503.29,7099.00
1504.52,7029.00
1505.75,7485.00
1506.98,7345.00
1508.20,6781.00
1509.43,6677.00
1510.66,5716.00
1511.88,7863.00
1513.11,5945.00
1514.33,7680.00
1515.55,6257.00
1516.78,6787.00
1518.00,7468.00
1519.22,6253.00
1520.44,6574.00
1521.66,6422.00
1522.88,6721.00
1524.10,6750.00
1525.32,6203.00
1526.54,6160.00
1527.76,6603.00
1528.98,6500.00
1530.19,6081.00
1531.41,6799.00
1532.63,7158.00
1533.84,6561.00
1535.06,6352.00
1536.27,5943.00
1537.48,6244.00
1538.70,6379.00
1539.91,6028.00
1541.12,6905.00
1542.33,5365.00
1543.55,6317.00
1544.76,5450.00
1545.97,6469.00
1547.18,6401.00
1548.39,5390.00
1549.59,6249.00
1550.80,4844.00
1552.01,6097.00
1553.22,5543.00
1554.42,5452.00
1555.63,5561.00
1556.84,5402.00
1558.04,6177.00
1559.24,5874.00
1560.45,5069.00
1561.65,4932.00
1562.86,5695.00
1564.06,5891.00
1565.26,6125.00
1566.46,5973.00
1567.66,5820.00
1568.86,5185.00
1570.06,5292.00
1571.26,5467.00
1572.46,5832.00
1573.66,5410.00
1574.86,5286.00
1576.05,5693.00
1577.25,4964.00
1578.45,4555.00
1579.64,4897.00
1580.84,4996.00
1582.03,5533.00
1583.23,4444.00
1584.42,5298.00
1585.61,4611.00
1586.81,5450.00
1588.00,5037.00
1589.19,4406.00
1590.38,4743.00
1591.57,4960.00
1592.76,5038.00
1593.95,5150.00
1595.14,5400.00
1596.33,5101.00
1597.52,4426.00
1598.71,4785.00
1599.90,4542.00
1601.08,6079.00
1602.27,4852.00
1603.45,5490.00
1604.64,4827.00
1605.83,5044.00
1607.01,6100.00
1608.19,4506.00
1609.38,4171.00
1610.56,5285.00
1611.74,5571.00
1612.92,5521.00
1614.11,4719.00
1615.29,4700.00
1616.47,5004.00
1617.65,4770.00
1618.83,4982.00
1620.01,4905.00
1621.18,4352.00
1622.36,4505.00
1623.54,4273.00
1624.72,4611.00
1625.89,4458.00
1627.07,4138.00
1628.25,4842.00
1629.42,4191.00
1630.60,4391.00
1631.77,4031.00
1632.94,4091.00
1634.12,5547.00
1635.29,3344.00
1636.46,5367.00
1637.63,3877.00
1638.80,3825.00
1639.98,4148.00
1641.15,4588.00
1642.32,4694.00
1643.49,3697.00
1644.65,3787.00
1645.82,3904.00
1646.99,3959.00
1648.16,4326.00
1649.33,5142.00
1650.49,3865.00
1651.66,3923.00
1652.82,4586.00
1653.99,3857.00
1655.15,4749.00
1656.32,4955.00
1657.48,4461.00
1658.65,3950.00
1659.81,4608.00
1660.97,4243.00
1662.13,4163.00
1663.29,5038.00
1664.45,3039.00
1665.62,3253.00
1666.78,3908.00
1667.94,4324.00
1669.09,4346.00
1670.25,4098.00
1671.41,4316.00
1672.57,4777.00
1673.73,3870.00
1674.88,4093.00
1676.04,4236.00
1677.20,4724.00
1678.35,4249.00
1679.51,4266.00
1680.66,4072.00
1681.82,3794.00
1682.97,4485.00
1684.12,3402.00
1685.27,4490.00
1686.43,4389.00
1687.58,4328.00
1688.73,4012.00
1689.88,4554.00
1691.03,4652.00
1692.18,3817.00
1693.33,3977.00
1694.48,3879.00
1695.63,3065.00
1696.78,4730.00
1697.93,4375.00
1699.07,3885.00
1700.22,4713.00
1701.37,5313.00
1702.51,4869.00
1703.66,5145.00
1704.80,3984.00
1705.95,5213.00
1707.09,4028.00
1708.24,4367.00
1709.38,4607.00
1710.52,3797.00
1711.67,5412.00
1712.81,3266.00
1713.95,5066.00
1715.09,4043.00
1716.23,3485.00
1717.37,4536.00
1718.51,3810.00
1719.65,3010.00
1720.79,4043.00
1721.93,4237.00
1723.07,3803.00
1724.20,3562.00
1725.34,4404.00
1726.48,3793.00
1727.62,4468.00
1728.75,3793.00
1729.89,3724.00
1731.02,4484.00
1732.16,3759.00
1733.29,4034.00
1734.43,4725.00
1735.56,4750.00
1736.69,4235.00
1737.82,3932.00
1738.96,3946.00
1740.09,4797.00
1741.22,5013.00
1742.35,3756.00
1743.48,4387.00
1744.61,4307.00
1745.74,4212.00
1746.87,3801.00
1748.00,3911.00
1749.13,3972.00
1750.25,4203.00
1751.38,5091.00
1752.51,4014.00
1753.64,4056.00
1754.76,4168.00
1755.89,3305.00
1757.01,4726.00
1758.14,4563.00
1759.26,5214.00
1760.39,4486.00
1761.51,3797.00
1762.63,3988.00
1763.76,4871.00
1764.88,4575.00
1766.00,3943.00
1767.12,3957.00
1768.24,3928.00
1769.37,4256.00
1770.49,5694.00
1771.61,4585.00
1772.73,4522.00
1773.85,3676.00
1774.96,3937.00
1776.08,4020.00
1777.20,3531.00
1778.32,4200.00
1779.44,4647.00
1780.55,3515.00
1781.67,3902.00
1782.78,4366.00
1783.90,4756.00
1785.01,3862.00
1786.13,3355.00
1787.24,3439.00
1788.36,4291.00
1789.47,3701.00
1790.58,4575.00
1791.70,3748.00
1792.81,3800.00
1793.92,3606.00
1795.03,4172.00
1796.14,4258.00
1797.26,4164.00
1798.37,4407.00
1799.48,3981.00
1800.58,4213.00
1801.69,3618.00
1802.80,3839.00
1803.91,4271.00
1805.02,4870.00
1806.13,4086.00
1807.23,3630.00
1808.34,4102.00
1809.45,3937.00
1810.55,4066.00
1811.66,3472.00
1812.76,3588.00
1813.87,2742.00
1814.97,3005.00
1816.08,3587.00
1817.18,3587.00
1818.28,4261.00
1819.39,3091.00
1820.49,3438.00
1821.59,3070.00
1822.69,3929.00
1823.79,3584.00
1824.90,3314.00
1826.00,2718.00
1827.10,2167.00
1828.20,3744.00
1829.30,4136.00
1830.39,3055.00
1831.49,3895.00
1832.59,2792.00
1833.69,3658.00
1834.79,3434.00
1835.88,3626.00
1836.98,3967.00
1838.08,3189.00
1839.17,3548.00
1840.27,3463.00
1841.36,3396.00
1842.46,3519.00
1843.55,3127.00
1844.65,3969.00
1845.74,3436.00
1846.83,3880.00
1847.93,2596.00
1849.02,3639.00
1850.11,3018.00
1851.20,3240.00
1852.30,3769.00
1853.39,3039.00
1854.48,2092.00
1855.57,2888.00
1856.66,2708.00
1857.75,3739.00
1858.84,2332.00
1859.93,2643.00
1861.01,3059.00
1862.10,3174.00
1863.19,2650.00
1864.28,2822.00
1865.37,3415.00
1866.45,2311.00
1867.54,2759.00
1868.62,2713.00
1869.71,3024.00
1870.79,1544.00
1871.88,2551.00
1872.96,2218.00
1874.05,2352.00
1875.13,1820.00
1876.22,3137.00
1877.30,3126.00
1878.38,2744.00
1879.46,1787.00
1880.55,2656.00
1881.63,2203.00
1882.71,2247.00
1883.79,2445.00
1884.87,2456.00
1885.95,2068.00
1887.03,820.00
1888.11,2702.00
1889.19,1995.00
1890.27,2559.00
1891.35,1658.00
1892.42,2057.00
1893.50,2403.00
1894.58,2969.00
1895.66,2254.00
1896.73,1926.00
1897.81,2567.00
1898.89,1799.00
1899.96,2382.00
1901.04,1452.00
1902.11,1684.00
1903.19,1661.00
1904.26,3190.00
1905.33,2645.00
1906.41,2346.00
1907.48,1905.00
1908.55,1470.00
1909.63,2082.00
1910.70,2383.00
1911.77,2202.00
1912.84,1901.00
1913.91,2255.00
1914.98,1912.00
1916.05,863.00
1917.12,2588.00
1918.19,1922.00
1919.26,1863.00
1920.33,2017.00
1921.40,2968.00
1922.47,2039.00
1923.54,1765.00
1924.60,2849.00
1925.67,1596.00
1926.74,1858.00
1927.80,2995.00
1928.87,1418.00
1929.94,1990.00
1931.00,2538.00
1932.07,2397.00
1933.13,1630.00
1934.20,1659.00
1935.26,2269.00
1936.33,2183.00
1937.39,2234.00
1938.45,2222.00
1939.52,2288.00
1940.58,1806.00
1941.64,2523.00
1942.70,1460.00
1943.76,1656.00
1944.83,2287.00
1945.89,2458.00
1946.95,2702.00
1948.01,1937.00
1949.07,1908.00
1950.13,2472.00
1951.19,2295.00
1952.25,1408.00
1953.30,1775.00
1954.36,1536.00
1955.42,1591.00
1956.48,1512.00
1957.54,2308.00
1958.59,2428.00
1959.65,2256.00
1960.71,2017.00
1961.76,2503.00
1962.82,2703.00
1963.87,2123.00
1964.93,1921.00
1965.98,2412.00
1967.04,2619.00
1968.09,1808.00
1969.15,2081.00
1970.20,1611.00
1971.25,2004.00
1972.31,2645.00
1973.36,2209.00
1974.41,2202.00
1975.46,2606.00
1976.51,1907.00
1977.57,2597.00
1978.62,2225.00
1979.67,1813.00
1980.72,1800.00
1981.77,1179.00
1982.82,2453.00
1983.87,1665.00
1984.92,1927.00
1985.96,2515.00
1987.01,2228.00
1988.06,1896.00
1989.11,1748.00
1990.16,2047.00
1991.20,2297.00
1992.25,2272.00
1993.30,2641.00
1994.34,1579.00
1995.39,1431.00
1996.44,1967.00
1997.48,1515.00
1998.53,2340.00
1999.57,2013.00
2000.62,2400.00
2001.66,2271.00
2002.70,2302.00
2003.75,1461.00
2004.79,1520.00
2005.83,2321.00
2006.88,2250.00
2007.92,2399.00
2008.96,1750.00
2010.00,2042.00
2011.04,2808.00
2012.08,1413.00
2013.13,2123.00
2014.17,1803.00
2015.21,651.00
2016.25,1579.00
2017.29,2049.00
2018.33,2438.00
2019.36,2509.00
2020.40,1493.00
2021.44,2315.00
2022.48,2403.00
2023.52,2477.00
2024.56,1812.00
2025.59,1961.00
2026.63,1311.00
2027.67,3272.00
2028.70,1738.00
2029.74,2312.00
2030.78,2643.00
2031.81,1584.00
2032.85,2437.00
2033.88,1941.00
2034.92,2951.00
2035.95,2319.00
2036.98,2666.00
2038.02,2760.00
2039.05,2451.00
2040.08,1622.00
2041.12,2461.00
2042.15,2280.00
2043.18,2192.00
2044.21,1278.00
2045.25,1501.00
2046.28,2890.00
2047.31,1966.00
2048.34,1207.00
2049.37,2070.00
2050.40,1676.00
2051.43,2105.00
2052.46,1895.00
2053.49,2194.00
2054.52,1689.00
2055.55,1343.00
2056.58,2184.00
2057.61,1691.00
2058.63,1560.00
2059.66,2042.00
2060.69,2070.00
2061.72,1134.00
2062.74,2235.00
2063.77,1577.00
2064.80,3090.00
2065.82,2993.00
2066.85,1895.00
2067.87,2574.00
2068.90,1305.00
2069.92,2272.00
2070.95,2321.00
2071.97,1758.00
2073.00,1242.00
2074.02,1909.00
2075.05,2112.00
2076.07,2234.00
2077.09,2012.00
2078.12,1743.00
2079.14,2219.00
2080.16,1846.00
2081.18,1194.00
2082.20,1813.00
2083.23,1684.00
2084.25,2043.00
2085.27,1653.00
2086.29,1871.00
2087.31,1864.00
2088.33,1391.00
2089.35,1209.00
2090.37,1218.00
2091.39,2418.00
2092.41,1589.00
2093.43,1961.00
2094.44,1975.00
2095.46,2020.00
2096.48,1415.00
2097.50,1456.00
2098.52,1374.00
2099.53,1734.00
2100.55,1007.00
2101.57,1919.00
2102.58,2311.00
2103.60,1471.00
2104.62,1567.00
2105.63,1609.00
2106.65,1800.00
2107.66,1712.00
2108.68,1984.00
2109.69,1556.00
2110.71,1184.00
2111.72,1615.00
2112.73,1430.00
2113.75,1432.00
2114.76,627.00
2115.77,1891.00
2116.79,1669.00
2117.80,1292.00
2118.81,1458.00
2119.82,1823.00
2120.84,1318.00
2121.85,2159.00
2122.86,1334.00
2123.87,1109.00
2124.88,1226.00
2125.89,1403.00
2126.90,1359.00
2127.91,1043.00
2128.92,1240.00
2129.93,964.00
2130.94,1017.00
2131.95,1032.00
2132.96,1995.00
2133.97,1307.00
2134.97,1312.00
2135.98,1824.00
2136.99,1357.00
2138.00,881.00
2139.01,1170.00
2140.01,983.00
2141.02,-128.00
2142.03,843.00
2143.03,800.00
2144.04,1311.00
2145.04,892.00
2146.05,1353.00
2147.06,1540.00
2148.06,623.00
2149.07,1420.00
2150.07,885.00
2151.07,1250.00
2152.08,1084.00
2153.08,1400.00
2154.09,1698.00
2155.09,1609.00
2156.09,984.00
2157.10,1672.00
2158.10,966.00
2159.10,1490.00
2160.10,1056.00
2161.11,1222.00
2162.11,81.00
2163.11,979.00
2164.11,1317.00
2165.11,1064.00
2166.11,1155.00
2167.11,1488.00
2168.11,1079.00
2169.11,1456.00
2170.11,766.00
2171.11,792.00
2172.11,1151.00
2173.11,1589.00
2174.11,843.00
2175.11,1355.00
2176.11,747.00
2177.11,683.00
2178.10,378.00
2179.10,487.00
2180.10,1641.00
2181.10,1191.00
2182.09,1068.00
2183.09,561.00
2184.09,276.00
2185.08,144.00
2186.08,119.00
2187.08,766.00
2188.07,1256.00
2189.07,283.00
2190.06,1330.00
2191.06,503.00
2192.05,1109.00
2193.05,1284.00
2194.04,750.00
2195.04,1493.00
2196.03,1055.00
2197.02,1537.00
2198.02,817.00
2199.01,1104.00
2200.00,901.00
2201.00,856.00
2201.99,1081.00
2202.98,660.00
2203.97,1336.00
2204.97,729.00
2205.96,1026.00
2206.95,1276.00
2207.94,123.00
2208.93,1007.00
2209.92,708.00
2210.91,502.00
2211.90,911.00
2212.89,1680.00
2213.88,1217.00
2214.87,931.00
2215.86,1383.00
2216.85,1388.00
2217.84,85.00
2218.83,900.00
2219.82,880.00
2220.81,304.00
2221.80,526.00
2222.78,431.00
2223.77,1535.00
2224.76,1334.00
2225.75,1536.00
2226.73,1355.00
2227.72,1665.00
2228.71,1308.00
2229.70,1239.00
2230.68,784.00
2231.67,395.00
2232.65,288.00
2233.64,953.00
2234.63,1450.00
2235.61,816.00
2236.60,982.00
2237.58,1722.00
2238.57,390.00
2239.55,671.00
2240.53,350.00
2241.52,1097.00
2242.50,715.00
2243.49,1010.00
2244.47,851.00
2245.45,1727.00
2246.44,1066.00
2247.42,1261.00
2248.40,1310.00
2249.38,761.00
2250.37,1129.00
2251.35,734.00
2252.33,1372.00
2253.31,775.00
2254.29,674.00
2255.28,979.00
2256.26,1043.00
2257.24,438.00
2258.22,1006.00
2259.20,740.00
2260.18,1274.00
2261.16,1398.00
2262.14,220.00
2263.12,1116.00
2264.10,1260.00
2265.08,1624.00
2266.06,1411.00
2267.04,357.00
2268.01,855.00
2268.99,574.00
2269.97,1069.00
2270.95,424.00
2271.93,1070.00
2272.90,536.00
2273.88,997.00
2274.86,229.00
2275.84,1239.00
2276.81,1038.00
2277.79,1092.00
2278.77,1140.00
2279.74,1468.00
2280.72,1272.00
2281.70,639.00
2282.67,626.00
2283.65,282.00
2284.62,1313.00
2285.60,1131.00
2286.57,757.00
2287.55,1044.00
2288.52,1085.00
2289.50,590.00
2290.47,1054.00
2291.45,613.00
2292.42,1015.00
2293.39,1059.00
2294.37,1369.00
2295.34,977.00
2296.31,254.00
2297.29,1023.00
2298.26,1075.00
2299.23,667.00
2300.21,771.00
2301.18,536.00
2302.15,831.00
2303.12,1011.00
2304.09,1271.00
2305.07,397.00
2306.04,770.00
2307.01,803.00
2307.98,1080.00
2308.95,1325.00
2309.92,468.00
2310.89,1381.00
2311.86,1175.00
2312.83,357.00
2313.80,692.00
2314.77,774.00
2315.74,632.00
2316.71,1612.00
2317.68,397.00
2318.65,707.00
2319.62,708.00
2320.59,1186.00
2321.56,399.00
2322.53,195.00
2323.49,354.00
2324.46,322.00
2325.43,920.00
2326.40,342.00
2327.36,519.00
2328.33,1364.00
2329.30,1332.00
2330.27,496.00
2331.23,1205.00
2332.20,1123.00
2333.17,990.00
2334.13,550.00
2335.10,479.00
2336.07,738.00
2337.03,549.00
2338.00,701.00
2338.96,728.00
2339.93,267.00
2340.89,978.00
2341.86,304.00
2342.82,850.00
2343.79,1095.00
2344.75,975.00
2345.72,255.00
2346.68,873.00
2347.64,417.00
2348.61,422.00
2349.57,-98.00
2350.54,256.00
2351.50,189.00
2352.46,512.00
2353.43,576.00
2354.39,57.00
2355.35,466.00
2356.31,487.00
2357.28,515.00
2358.24,659.00
2359.20,1025.00
2360.16,935.00
2361.12,1040.00
2362.09,-273.00
2363.05,851.00
2364.01,996.00
2364.97,1133.00
2365.93,1078.00
2366.89,-16.00
2367.85,909.00
2368.81,1066.00
2369.77,408.00
2370.73,725.00
2371.69,878.00
2372.65,-72.00
2373.61,364.00
2374.57,125.00
2375.53,102.00
2376.49,34.00
2377.45,1221.00
2378.41,679.00
2379.37,578.00
2380.33,-67.00
2381.29,217.00
2382.24,-182.00
2383.20,-37.00
2384.16,-132.00
2385.12,-3.00
2386.08,419.00
2387.03,855.00
2387.99,-521.00
2388.95,-108.00
2389.91,382.00
2390.86,320.00
2391.82,620.00
2392.78,226.00
2393.73,621.00
2394.69,74.00
2395.65,-129.00
2396.60,900.00
2397.56,252.00
2398.51,1659.00
2399.47,989.00
2400.43,673.00
2401.38,212.00
2402.34,648.00
2403.29,670.00
2404.25,-88.00
2405.20,205.00
2406.16,188.00
2407.11,245.00
2408.07,-342.00
2409.02,671.00
2409.97,-111.00
2410.93,212.00
2411.88,309.00
2412.84,301.00
2413.79,1149.00
2414.74,423.00
2415.70,-28.00
2416.65,-30.00
2417.60,822.00
2418.55,265.00
2419.51,373.00
2420.46,294.00
2421.41,272.00
2422.37,232.00
2423.32,497.00
2424.27,-58.00
2425.22,-178.00
2426.17,168.00
2427.12,142.00
2428.08,395.00
2429.03,-266.00
2429.98,-733.00
2430.93,444.00
2431.88,493.00
2432.83,626.00
2433.78,164.00
2434.73,-208.00
2435.68,466.00
2436.63,352.00
2437.58,836.00
2438.53,577.00
2439.48,411.00
2440.43,174.00
2441.38,147.00
2442.33,-391.00
2443.28,-305.00
2444.23,114.00
2445.18,197.00
2446.13,95.00
2447.08,579.00
2448.03,751.00
2448.98,318.00
2449.92,366.00
2450.87,-117.00
2451.82,638.00
2452.77,1019.00
2453.72,309.00
2454.67,-254.00
2455.61,117.00
2456.56,291.00
2457.51,-434.00
2458.46,364.00
2459.40,68.00
2460.35,-408.00
2461.30,-569.00
2462.24,393.00
2463.19,889.00
2464.14,559.00
2465.08,769.00
2466.03,301.00
2466.98,94.00
2467.92,488.00
2468.87,745.00
2469.81,695.00
2470.76,110.00
2471.71,44.00
2472.65,-414.00
2473.60,459.00
2474.54,-189.00
2475.49,124.00
2476.43,505.00
2477.38,51.00
2478.32,135.00
2479.27,981.00
2480.21,617.00
2481.16,233.00
2482.10,436.00
2483.05,-334.00
2483.99,134.00
2484.93,352.00
2485.88,-489.00
2486.82,460.00
2487.76,489.00
2488.71,129.00
2489.65,-282.00
2490.60,1254.00
2491.54,173.00
2492.48,466.00
2493.42,590.00
2494.37,248.00
2495.31,37.00
2496.25,180.00
2497.20,400.00
2498.14,255.00
2499.08,642.00
2500.02,443.00
2500.96,49.00
2501.91,194.00
2502.85,610.00
2503.79,307.00
2504.73,56.00
2505.67,470.00
2506.62,243.00
2507.56,-50.00
2508.50,532.00
2509.44,435.00
2510.38,760.00
2511.32,-312.00
2512.26,501.00
2513.20,58.00
2514.14,467.00
2515.08,57.00
2516.02,682.00
2516.96,153.00
2517.91,849.00
2518.85,-521.00
2519.79,294.00
2520.73,13.00
2521.66,915.00
2522.60,905.00
2523.54,236.00
2524.48,43.00
2525.42,319.00
2526.36,129.00
2527.30,523.00
2528.24,61.00
2529.18,624.00
2530.12,486.00
2531.06,1174.00
2532.00,507.00
2532.93,486.00
2533.87,580.00
2534.81,151.00
2535.75,150.00
2536.69,-363.00
2537.63,-864.00
2538.56,498.00
2539.50,-92.00
2540.44,182.00
2541.38,894.00
2542.32,232.00
2543.25,575.00
2544.19,148.00
2545.13,47.00
2546.07,344.00
2547.00,542.00
2547.94,392.00
2548.88,36.00
2549.81,140.00
2550.75,120.00
2551.69,-272.00
2552.62,415.00
2553.56,266.00
2554.50,-128.00
2555.43,569.00
2556.37,54.00
2557.30,315.00
2558.24,301.00
2559.18,236.00
2560.11,734.00
2561.05,-324.00
2561.98,180.00
2562.92,-92.00
2563.86,280.00
2564.79,356.00
2565.73,145.00
2566.66,-105.00
2567.60,624.00
2568.53,536.00
2569.47,-75.00
2570.40,545.00
2571.34,323.00
2572.27,-236.00
2573.21,-141.00
2574.14,89.00
2575.07,-470.00
2576.01,376.00
2576.94,266.00
2577.88,-81.00
2578.81,-307.00
2579.75,-308.00
2580.68,-34.00
2581.61,469.00
2582.55,-227.00
2583.48,-219.00
2584.42,290.00
2585.35,401.00
2586.28,346.00
2587.22,357.00
2588.15,-174.00
2589.08,-38.00
2590.02,378.00
2590.95,277.00
2591.88,-184.00
2592.81,503.00
2593.75,-493.00
2594.68,232.00
2595.61,-91.00
2596.55,-228.00
2597.48,-497.00
2598.41,-386.00
2599.34,289.00
2600.28,37.00
2601.21,211.00
2602.14,104.00
2603.07,525.00
2604.00,-568.00
2604.94,870.00
2605.87,-403.00
2606.80,-533.00
2607.73,-324.00
2608.66,291.00
2609.59,249.00
2610.53,539.00
2611.46,88.00
2612.39,261.00
2613.32,539.00
2614.25,227.00
2615.18,175.00
2616.11,-51.00
2617.04,513.00
2617.97,-174.00
2618.91,-659.00
2619.84,24.00
2620.77,-465.00
2621.70,106.00
2622.63,191.00
2623.56,-320.00
2624.49,-112.00
2625.42,286.00
2626.35,-145.00
2627.28,-385.00
2628.21,-729.00
2629.14,-184.00
2630.07,-165.00
2631.00,545.00
2631.93,256.00
2632.86,186.00
2633.79,216.00
2634.72,727.00
2635.65,-336.00
2636.58,361.00
2637.51,183.00
2638.44,-284.00
2639.37,-158.00
2640.30,-406.00
2641.23,-616.00
2642.15,-693.00
2643.08,-757.00
2644.01,-226.00
2644.94,-429.00
2645.87,-229.00
2646.80,-481.00
2647.73,47.00
2648.66,-830.00
2649.59,-77.00
2650.51,265.00
2651.44,37.00
2652.37,78.00
2653.30,594.00
2654.23,108.00
2655.16,533.00
2656.08,-523.00
2657.01,-348.00
2657.94,197.00
2658.87,-343.00
2659.80,-256.00
2660.72,-392.00
2661.65,319.00
2662.58,-69.00
2663.51,-41.00
2664.44,-224.00
2665.36,128.00
2666.29,-179.00
2667.22,211.00
2668.15,-227.00
2669.07,-14.00
2670.00,-379.00
2670.93,-93.00
2671.86,-156.00
2672.78,-1116.00
2673.71,67.00
2674.64,0.00
2675.56,0.00
2676.49,0.00
2677.42,0.00
2678.35,0.00
