ENLIGHTEN Version,1.6.8
Measurement ID,20190528-175806-921018-WP-00421
Serial Number,WP-00421
Label,Toluene
Integration Time,100
Timestamp,2019-05-28 17:58:06.921018
Note,
Temperature,-99
CCD C0,845.722412109375
CCD C1,0.1515599936246872
CCD C2,-8.504200195602607e-06
CCD C3,-7.913800281755812e-09
CCD Offset,0
CCD Gain,1.9
Laser Wavelength,830.0
Laser Enable,True
Laser Power,100.0
Laser Temperature,-99
Pixel Count,1024

Wavenumber,Processed
223.98,1811.00
226.10,1811.00
228.22,1720.00
230.33,1581.00
232.45,1488.00
234.56,1365.00
236.68,1247.00
238.79,1137.00
240.90,1029.00
243.01,938.00
245.12,868.00
247.23,808.00
249.34,735.00
251.44,672.00
253.55,630.00
255.65,604.00
257.76,556.00
259.86,526.00
261.96,480.00
264.06,486.00
266.16,446.00
268.26,412.00
270.36,399.00
272.46,368.00
274.55,345.00
276.65,332.00
278.74,352.00
280.83,313.00
282.92,296.00
285.01,290.00
287.10,296.00
289.19,279.00
291.28,273.00
293.37,269.00
295.45,264.00
297.54,246.00
299.62,262.00
301.70,239.00
303.78,251.00
305.86,234.00
307.94,247.00
310.02,228.00
312.10,236.00
314.18,243.00
316.25,245.00
318.33,226.00
320.40,251.00
322.47,245.00
324.54,290.00
326.62,300.00
328.69,323.00
330.75,323.00
332.82,396.00
334.89,464.00
336.95,550.00
339.02,724.00
341.08,867.00
343.14,1014.00
345.21,1143.00
347.27,1092.00
349.33,1005.00
351.39,817.00
353.44,678.00
355.50,511.00
357.56,411.00
359.61,309.00
361.66,300.00
363.72,256.00
365.77,212.00
367.82,197.00
369.87,165.00
371.92,163.00
373.96,157.00
376.01,146.00
378.06,152.00
380.10,158.00
382.15,150.00
384.19,154.00
386.23,159.00
388.27,156.00
390.31,152.00
392.35,163.00
394.39,175.00
396.42,186.00
398.46,210.00
400.49,219.00
402.53,262.00
404.56,270.00
406.59,283.00
408.62,281.00
410.65,231.00
412.68,249.00
414.71,205.00
416.74,215.00
418.76,197.00
420.79,192.00
422.81,162.00
424.83,178.00
426.86,192.00
428.88,163.00
430.90,181.00
432.91,188.00
434.93,175.00
436.95,149.00
438.97,166.00
440.98,171.00
442.99,182.00
445.01,154.00
447.02,146.00
449.03,162.00
451.04,167.00
453.05,205.00
455.06,243.00
457.06,250.00
459.07,337.00
461.07,461.00
463.08,543.00
465.08,616.00
467.08,647.00
469.08,605.00
471.08,490.00
473.08,374.00
475.08,308.00
477.08,232.00
479.07,224.00
481.07,192.00
483.06,190.00
485.05,194.00
487.05,190.00
489.04,197.00
491.03,212.00
493.02,222.00
495.00,216.00
496.99,249.00
498.98,290.00
500.96,324.00
502.95,363.00
504.93,463.00
506.91,579.00
508.89,737.00
510.87,1012.00
512.85,1515.00
514.83,2491.00
516.81,4165.00
518.78,6896.00
520.76,9128.00
522.73,9718.00
524.71,8940.00
526.68,6785.00
528.65,4201.00
530.62,2402.00
532.59,1456.00
534.56,962.00
536.52,693.00
538.49,549.00
540.45,441.00
542.42,349.00
544.38,315.00
546.34,258.00
548.30,241.00
550.26,192.00
552.22,167.00
554.18,158.00
556.14,150.00
558.10,150.00
560.05,114.00
562.00,93.00
563.96,86.00
565.91,88.00
567.86,78.00
569.81,82.00
571.76,61.00
573.71,107.00
575.66,58.00
577.60,78.00
579.55,76.00
581.49,55.00
583.43,67.00
585.38,100.00
587.32,107.00
589.26,112.00
591.20,125.00
593.14,152.00
595.07,138.00
597.01,188.00
598.95,188.00
600.88,218.00
602.81,262.00
604.75,270.00
606.68,417.00
608.61,461.00
610.54,674.00
612.46,827.00
614.39,1177.00
616.32,1595.00
618.24,2097.00
620.17,2664.00
622.09,3108.00
624.01,3254.00
625.94,3093.00
627.86,2611.00
629.78,2064.00
631.69,1450.00
633.61,1097.00
635.53,748.00
637.44,579.00
639.36,427.00
641.27,323.00
643.18,252.00
645.10,221.00
647.01,159.00
648.92,127.00
650.82,118.00
652.73,78.00
654.64,53.00
656.54,80.00
658.45,32.00
660.35,78.00
662.25,27.00
664.16,36.00
666.06,46.00
667.96,6.00
669.86,-7.00
671.75,30.00
673.65,-9.00
675.55,6.00
677.44,29.00
679.33,51.00
681.23,4.00
683.12,15.00
685.01,22.00
686.90,27.00
688.79,64.00
690.68,76.00
692.56,110.00
694.45,103.00
696.33,88.00
698.22,106.00
700.10,49.00
701.98,49.00
703.86,51.00
705.74,51.00
707.62,61.00
709.50,38.00
711.38,45.00
713.25,78.00
715.13,106.00
717.00,107.00
718.87,72.00
720.75,127.00
722.62,211.00
724.49,260.00
726.36,345.00
728.22,397.00
730.09,461.00
731.96,539.00
733.82,514.00
735.69,414.00
737.55,368.00
739.41,312.00
741.27,235.00
743.13,188.00
744.99,145.00
746.85,109.00
748.71,116.00
750.56,106.00
752.42,86.00
754.27,102.00
756.12,132.00
757.98,125.00
759.83,169.00
761.68,191.00
763.53,190.00
765.38,270.00
767.22,312.00
769.07,389.00
770.91,518.00
772.76,688.00
774.60,1038.00
776.44,1703.00
778.29,2950.00
780.13,5215.00
781.97,9758.00
783.80,17234.00
785.64,24648.00
787.48,27947.00
789.31,26478.00
791.15,21331.00
792.98,13716.00
794.81,7139.00
796.64,3636.00
798.48,2178.00
800.30,1608.00
802.13,1292.00
803.96,1232.00
805.79,1258.00
807.61,1304.00
809.44,1382.00
811.26,1439.00
813.08,1420.00
814.91,1249.00
816.73,1070.00
818.55,832.00
820.36,615.00
822.18,454.00
824.00,363.00
825.81,268.00
827.63,233.00
829.44,234.00
831.26,183.00
833.07,192.00
834.88,214.00
836.69,233.00
838.50,300.00
840.30,331.00
842.11,380.00
843.92,401.00
845.72,355.00
847.53,317.00
849.33,322.00
851.13,230.00
852.93,177.00
854.73,178.00
856.53,97.00
858.33,103.00
860.13,106.00
861.92,96.00
863.72,93.00
865.51,63.00
867.30,21.00
869.10,42.00
870.89,59.00
872.68,59.00
874.47,48.00
876.26,42.00
878.04,45.00
879.83,71.00
881.61,74.00
883.40,118.00
885.18,66.00
886.96,88.00
888.75,114.00
890.53,137.00
892.30,182.00
894.08,183.00
895.86,222.00
897.64,228.00
899.41,252.00
901.19,209.00
902.96,172.00
904.73,117.00
906.50,125.00
908.27,103.00
910.04,59.00
911.81,103.00
913.58,63.00
915.35,46.00
917.11,66.00
918.88,59.00
920.64,63.00
922.40,83.00
924.17,82.00
925.93,55.00
927.69,89.00
929.44,95.00
931.20,83.00
932.96,139.00
934.71,125.00
936.47,106.00
938.22,93.00
939.98,93.00
941.73,100.00
943.48,95.00
945.23,88.00
946.98,146.00
948.73,134.00
950.47,144.00
952.22,158.00
953.96,180.00
955.71,179.00
957.45,196.00
959.19,230.00
960.93,253.00
962.67,325.00
964.41,402.00
966.15,405.00
967.89,435.00
969.63,492.00
971.36,547.00
973.09,588.00
974.83,661.00
976.56,647.00
978.29,740.00
980.02,740.00
981.75,765.00
983.48,874.00
985.21,1053.00
986.93,1318.00
988.66,1737.00
990.38,2219.00
992.11,2796.00
993.83,3436.00
995.55,4308.00
997.27,6432.00
998.99,11328.00
1000.71,21621.00
1002.43,34217.00
1004.14,41646.00
1005.86,42415.00
1007.57,36927.00
1009.29,26056.00
1011.00,14320.00
1012.71,7246.00
1014.42,3932.00
1016.13,2531.00
1017.84,1927.00
1019.55,1648.00
1021.26,1664.00
1022.96,1935.00
1024.67,2616.00
1026.37,4383.00
1028.08,7391.00
1029.78,10514.00
1031.48,12139.00
1033.18,11941.00
1034.88,10079.00
1036.58,6749.00
1038.27,3745.00
1039.97,2018.00
1041.66,1291.00
1043.36,892.00
1045.05,708.00
1046.74,594.00
1048.44,490.00
1050.13,429.00
1051.82,372.00
1053.50,288.00
1055.19,278.00
1056.88,226.00
1058.56,262.00
1060.25,237.00
1061.93,248.00
1063.61,204.00
1065.30,198.00
1066.98,188.00
1068.66,196.00
1070.33,195.00
1072.01,192.00
1073.69,219.00
1075.36,219.00
1077.04,234.00
1078.71,245.00
1080.39,293.00
1082.06,293.00
1083.73,313.00
1085.40,248.00
1087.07,260.00
1088.74,218.00
1090.40,209.00
1092.07,197.00
1093.73,169.00
1095.40,159.00
1097.06,138.00
1098.72,163.00
1100.38,140.00
1102.04,150.00
1103.70,135.00
1105.36,144.00
1107.02,151.00
1108.67,129.00
1110.33,131.00
1111.98,123.00
1113.64,127.00
1115.29,121.00
1116.94,140.00
1118.59,152.00
1120.24,137.00
1121.89,134.00
1123.54,155.00
1125.18,188.00
1126.83,142.00
1128.47,173.00
1130.12,184.00
1131.76,205.00
1133.40,230.00
1135.04,289.00
1136.68,298.00
1138.32,330.00
1139.96,385.00
1141.60,418.00
1143.23,510.00
1144.87,608.00
1146.50,715.00
1148.13,862.00
1149.77,1149.00
1151.40,1372.00
1153.03,1678.00
1154.66,2061.00
1156.29,2302.00
1157.91,2447.00
1159.54,2370.00
1161.16,2187.00
1162.79,1839.00
1164.41,1625.00
1166.03,1390.00
1167.66,1247.00
1169.28,1187.00
1170.89,1197.00
1172.51,1248.00
1174.13,1463.00
1175.75,1674.00
1177.36,1902.00
1178.98,2184.00
1180.59,2307.00
1182.20,2282.00
1183.82,2124.00
1185.43,1828.00
1187.04,1558.00
1188.64,1329.00
1190.25,1166.00
1191.86,1069.00
1193.47,986.00
1195.07,1006.00
1196.67,1057.00
1198.28,1069.00
1199.88,1253.00
1201.48,1523.00
1203.08,1967.00
1204.68,2753.00
1206.28,4072.00
1207.88,5971.00
1209.47,8045.00
1211.07,9203.00
1212.66,9228.00
1214.25,8184.00
1215.85,6321.00
1217.44,4266.00
1219.03,2612.00
1220.62,1597.00
1222.21,1057.00
1223.79,738.00
1225.38,600.00
1226.97,499.00
1228.55,400.00
1230.13,326.00
1231.72,296.00
1233.30,297.00
1234.88,249.00
1236.46,228.00
1238.04,239.00
1239.62,214.00
1241.19,232.00
1242.77,238.00
1244.34,231.00
1245.92,242.00
1247.49,235.00
1249.06,233.00
1250.63,210.00
1252.20,195.00
1253.77,206.00
1255.34,171.00
1256.91,158.00
1258.48,164.00
1260.04,146.00
1261.61,124.00
1263.17,129.00
1264.73,133.00
1266.29,116.00
1267.85,112.00
1269.41,139.00
1270.97,117.00
1272.53,129.00
1274.09,137.00
1275.64,152.00
1277.20,113.00
1278.75,125.00
1280.30,133.00
1281.86,115.00
1283.41,156.00
1284.96,141.00
1286.51,143.00
1288.05,120.00
1289.60,144.00
1291.15,139.00
1292.69,124.00
1294.24,141.00
1295.78,152.00
1297.32,152.00
1298.86,145.00
1300.40,173.00
1301.94,188.00
1303.48,214.00
1305.02,226.00
1306.56,245.00
1308.09,279.00
1309.63,304.00
1311.16,329.00
1312.69,367.00
1314.22,329.00
1315.75,329.00
1317.28,334.00
1318.81,323.00
1320.34,285.00
1321.87,291.00
1323.39,294.00
1324.92,296.00
1326.44,308.00
1327.97,355.00
1329.49,404.00
1331.01,420.00
1332.53,446.00
1334.05,452.00
1335.57,439.00
1337.08,416.00
1338.60,370.00
1340.12,351.00
1341.63,303.00
1343.14,291.00
1344.66,279.00
1346.17,262.00
1347.68,273.00
1349.19,264.00
1350.70,247.00
1352.20,267.00
1353.71,281.00
1355.22,287.00
1356.72,327.00
1358.23,315.00
1359.73,366.00
1361.23,385.00
1362.73,429.00
1364.23,456.00
1365.73,518.00
1367.23,579.00
1368.73,687.00
1370.22,793.00
1371.72,953.00
1373.21,1158.00
1374.71,1483.00
1376.20,1847.00
1377.69,2303.00
1379.18,2724.00
1380.67,2918.00
1382.16,2838.00
1383.65,2622.00
1385.13,2210.00
1386.62,1780.00
1388.10,1373.00
1389.59,1160.00
1391.07,938.00
1392.55,846.00
1394.03,740.00
1395.51,647.00
1396.99,558.00
1398.47,509.00
1399.95,457.00
1401.42,465.00
1402.90,437.00
1404.37,414.00
1405.85,414.00
1407.32,416.00
1408.79,418.00
1410.26,414.00
1411.73,436.00
1413.20,435.00
1414.67,442.00
1416.13,465.00
1417.60,485.00
1419.06,488.00
1420.53,511.00
1421.99,549.00
1423.45,604.00
1424.91,625.00
1426.37,653.00
1427.83,677.00
1429.29,735.00
1430.75,723.00
1432.20,788.00
1433.66,835.00
1435.11,829.00
1436.57,860.00
1438.02,883.00
1439.47,867.00
1440.92,881.00
1442.37,894.00
1443.82,908.00
1445.26,919.00
1446.71,894.00
1448.16,883.00
1449.60,832.00
1451.05,822.00
1452.49,794.00
1453.93,763.00
1455.37,715.00
1456.81,724.00
1458.25,699.00
1459.69,689.00
1461.13,651.00
1462.56,636.00
1464.00,613.00
1465.43,636.00
1466.86,598.00
1468.30,577.00
1469.73,586.00
1471.16,539.00
1472.59,532.00
1474.02,497.00
1475.44,500.00
1476.87,462.00
1478.30,493.00
1479.72,474.00
1481.14,469.00
1482.57,438.00
1483.99,439.00
1485.41,437.00
1486.83,448.00
1488.25,429.00
1489.67,433.00
1491.08,450.00
1492.50,459.00
1493.92,514.00
1495.33,509.00
1496.74,545.00
1498.16,530.00
1499.57,530.00
1500.98,475.00
1502.39,463.00
1503.80,424.00
1505.20,389.00
1506.61,389.00
1508.02,363.00
1509.42,329.00
1510.82,334.00
1512.23,306.00
1513.63,306.00
1515.03,289.00
1516.43,294.00
1517.83,289.00
1519.23,293.00
1520.63,298.00
1522.02,283.00
1523.42,276.00
1524.81,253.00
1526.20,268.00
1527.60,266.00
1528.99,247.00
1530.38,243.00
1531.77,257.00
1533.16,256.00
1534.55,241.00
1535.93,241.00
1537.32,247.00
1538.70,241.00
1540.09,247.00
1541.47,243.00
1542.85,255.00
1544.23,260.00
1545.61,252.00
1546.99,247.00
1548.37,281.00
1549.75,264.00
1551.12,256.00
1552.50,270.00
1553.87,274.00
1555.25,287.00
1556.62,283.00
1557.99,317.00
1559.36,292.00
1560.73,314.00
1562.10,330.00
1563.47,374.00
1564.84,409.00
1566.20,425.00
1567.57,454.00
1568.93,481.00
1570.29,539.00
1571.66,602.00
1573.02,659.00
1574.38,746.00
1575.74,868.00
1577.10,973.00
1578.45,1062.00
1579.81,1320.00
1581.16,1462.00
1582.52,1758.00
1583.87,1963.00
1585.23,2162.00
1586.58,2282.00
1587.93,2349.00
1589.28,2307.00
1590.63,2163.00
1591.98,2029.00
1593.32,1848.00
1594.67,1710.00
1596.01,1693.00
1597.36,1768.00
1598.70,1906.00
1600.04,2170.00
1601.39,2463.00
1602.73,2839.00
1604.07,3224.00
1605.40,3453.00
1606.74,3542.00
1608.08,3438.00
1609.41,3155.00
1610.75,2751.00
1612.08,2392.00
1613.42,1993.00
1614.75,1657.00
1616.08,1454.00
1617.41,1263.00
1618.74,1124.00
1620.07,990.00
1621.39,917.00
1622.72,864.00
1624.04,822.00
1625.37,781.00
1626.69,731.00
1628.02,658.00
1629.34,604.00
1630.66,550.00
1631.98,496.00
1633.30,452.00
1634.61,399.00
1635.93,359.00
1637.25,311.00
1638.56,279.00
1639.88,272.00
1641.19,256.00
1642.50,207.00
1643.81,228.00
1645.12,194.00
1646.43,186.00
1647.74,163.00
1649.05,154.00
1650.35,137.00
1651.66,133.00
1652.96,129.00
1654.27,133.00
1655.57,128.00
1656.87,100.00
1658.17,110.00
1659.47,112.00
1660.77,97.00
1662.07,93.00
1663.37,110.00
1664.66,76.00
1665.96,93.00
1667.25,97.00
1668.55,82.00
1669.84,91.00
1671.13,96.00
1672.42,90.00
1673.71,86.00
1675.00,89.00
1676.29,80.00
1677.58,78.00
1678.86,90.00
1680.15,92.00
1681.43,101.00
1682.71,87.00
1684.00,110.00
1685.28,78.00
1686.56,82.00
1687.84,84.00
1689.11,85.00
1690.39,76.00
1691.67,82.00
1692.94,68.00
1694.22,59.00
1695.49,55.00
1696.76,74.00
1698.04,42.00
1699.31,59.00
1700.58,66.00
1701.85,55.00
1703.11,55.00
1704.38,49.00
1705.65,41.00
1706.91,42.00
1708.18,33.00
1709.44,48.00
1710.70,40.00
1711.96,39.00
1713.22,35.00
1714.48,40.00
1715.74,31.00
1717.00,19.00
1718.26,31.00
1719.51,36.00
1720.77,19.00
1722.02,23.00
1723.28,23.00
1724.53,31.00
1725.78,36.00
1727.03,17.00
1728.28,34.00
1729.53,40.00
1730.77,36.00
1732.02,38.00
1733.27,36.00
1734.51,29.00
1735.75,38.00
1737.00,36.00
1738.24,46.00
1739.48,30.00
1740.72,33.00
1741.96,22.00
1743.20,31.00
1744.43,33.00
1745.67,15.00
1746.91,27.00
1748.14,35.00
1749.37,15.00
1750.61,3.00
1751.84,19.00
1753.07,23.00
1754.30,17.00
1755.53,15.00
1756.75,3.00
1757.98,17.00
1759.21,8.00
1760.43,19.00
1761.66,10.00
1762.88,23.00
1764.10,11.00
1765.32,25.00
1766.54,15.00
1767.76,25.00
1768.98,13.00
1770.20,10.00
1771.41,4.00
1772.63,11.00
1773.84,17.00
1775.06,6.00
1776.27,4.00
1777.48,9.00
1778.69,-9.00
1779.90,17.00
1781.11,30.00
1782.32,14.00
1783.53,4.00
1784.73,23.00
1785.94,21.00
1787.14,34.00
1788.35,36.00
1789.55,48.00
1790.75,43.00
1791.95,24.00
1793.15,36.00
1794.35,38.00
1795.55,15.00
1796.75,24.00
1797.94,24.00
1799.14,11.00
1800.33,15.00
1801.52,7.00
1802.72,4.00
1803.91,0.00
1805.10,-8.00
1806.29,-13.00
1807.48,-11.00
1808.66,10.00
1809.85,-2.00
1811.04,4.00
1812.22,11.00
1813.41,2.00
1814.59,-7.00
1815.77,13.00
1816.95,4.00
1818.13,2.00
1819.31,-6.00
1820.49,4.00
1821.67,0.00
1822.84,9.00
1824.02,7.00
1825.19,-1.00
1826.37,5.00
1827.54,2.00
1828.71,6.00
1829.88,2.00
1831.05,4.00
1832.22,9.00
1833.39,11.00
1834.56,0.00
1835.72,0.00
1836.89,9.00
1838.05,-27.00
1839.22,5.00
1840.38,9.00
1841.54,17.00
1842.70,4.00
1843.86,17.00
1845.02,0.00
1846.18,7.00
1847.33,-8.00
1848.49,4.00
1849.64,-5.00
1850.80,15.00
1851.95,5.00
1853.10,0.00
1854.25,8.00
1855.41,4.00
1856.55,10.00
1857.70,4.00
1858.85,2.00
1860.00,-4.00
1861.14,-6.00
1862.29,6.00
1863.43,4.00
1864.57,-7.00
1865.72,-2.00
1866.86,4.00
1868.00,-4.00
1869.14,19.00
1870.28,6.00
1871.41,-8.00
1872.55,23.00
1873.68,4.00
1874.82,15.00
1875.95,2.00
1877.09,24.00
1878.22,0.00
1879.35,-9.00
